,Wavelength,Sum
0,200.0,24.0
1,200.06,-6.0
2,200.11,23.0
3,200.17,-51.0
4,200.22,24.0
5,200.27,29.0
6,200.33,7.0
7,200.38,-15.0
8,200.43,-39.0
9,200.49,-7.0
10,200.54,5.0
11,200.6,-63.0
12,200.65,-29.0
13,200.7,44.0
14,200.76,-39.0
15,200.81,-52.0
16,200.87,-85.0
17,200.92,-3.0
18,200.97,30.0
19,201.03,-36.0
20,201.08,-22.0
21,201.13,-11.0
22,201.19,-65.0
23,201.24,22.0
24,201.3,-10.0
25,201.35,14.0
26,201.4,-57.0
27,201.46,25.0
28,201.51,23.0
29,201.56,26.0
30,201.62,13.0
31,201.67,-15.0
32,201.73,-59.0
33,201.78,-57.0
34,201.83,-33.0
35,201.89,-6.0
36,201.94,33.0
37,201.99,-28.0
38,202.05,46.0
39,202.1,-45.0
40,202.16,-9.0
41,202.21,8.0
42,202.26,-38.0
43,202.32,-64.0
44,202.37,-62.0
45,202.42,31.0
46,202.48,26.0
47,202.53,-22.0
48,202.58,-76.0
49,202.64,-16.0
50,202.69,-36.0
51,202.75,-66.0
52,202.8,57.0
53,202.85,41.0
54,202.91,-2.0
55,202.96,69.0
56,203.01,-25.0
57,203.07,8.0
58,203.12,55.0
59,203.18,44.0
60,203.23,37.0
61,203.28,-39.0
62,203.34,14.0
63,203.39,-3.0
64,203.44,-84.0
65,203.5,0.0
66,203.55,-57.0
67,203.6,-30.0
68,203.66,-13.0
69,203.71,-33.0
70,203.77,-18.0
71,203.82,13.0
72,203.87,-45.0
73,203.93,53.0
74,203.98,-16.0
75,204.03,10.0
76,204.09,29.0
77,204.14,31.0
78,204.19,-97.0
79,204.25,-7.0
80,204.3,-9.0
81,204.36,8.0
82,204.41,28.0
83,204.46,-15.0
84,204.52,23.0
85,204.57,31.0
86,204.62,-28.0
87,204.68,-35.0
88,204.73,31.0
89,204.78,-51.0
90,204.84,-42.0
91,204.89,3.0
92,204.95,-7.0
93,205.0,-51.0
94,205.05,-19.0
95,205.11,-12.0
96,205.16,0.0
97,205.21,46.0
98,205.27,37.0
99,205.32,28.0
100,205.37,32.0
101,205.43,23.0
102,205.48,-79.0
103,205.53,48.0
104,205.59,8.0
105,205.64,-75.0
106,205.7,18.0
107,205.75,64.0
108,205.8,44.0
109,205.86,33.0
110,205.91,17.0
111,205.96,162.0
112,206.02,38.0
113,206.07,51.0
114,206.12,-19.0
115,206.18,4.0
116,206.23,23.0
117,206.28,98.0
118,206.34,20.0
119,206.39,116.0
120,206.44,96.0
121,206.5,31.0
122,206.55,31.0
123,206.61,37.0
124,206.66,52.0
125,206.71,23.0
126,206.77,26.0
127,206.82,35.0
128,206.87,19.0
129,206.93,67.0
130,206.98,12.0
131,207.03,44.0
132,207.09,32.0
133,207.14,89.0
134,207.19,26.0
135,207.25,57.0
136,207.3,98.0
137,207.35,117.0
138,207.41,61.0
139,207.46,124.0
140,207.51,49.0
141,207.57,148.0
142,207.62,107.0
143,207.68,76.0
144,207.73,86.0
145,207.78,210.0
146,207.84,122.0
147,207.89,159.0
148,207.94,114.0
149,208.0,156.0
150,208.05,193.0
151,208.1,206.0
152,208.16,174.0
153,208.21,252.0
154,208.26,234.0
155,208.32,238.0
156,208.37,471.0
157,208.42,266.0
158,208.48,318.0
159,208.53,300.0
160,208.58,385.0
161,208.64,261.0
162,208.69,357.0
163,208.74,262.0
164,208.8,250.0
165,208.85,174.0
166,208.9,239.0
167,208.96,234.0
168,209.01,303.0
169,209.06,318.0
170,209.12,329.0
171,209.17,349.0
172,209.22,423.0
173,209.28,279.0
174,209.33,407.0
175,209.38,306.0
176,209.44,357.0
177,209.49,347.0
178,209.54,366.0
179,209.6,415.0
180,209.65,489.0
181,209.7,420.0
182,209.76,418.0
183,209.81,484.0
184,209.87,512.0
185,209.92,424.0
186,209.97,442.0
187,210.03,388.0
188,210.08,488.0
189,210.13,379.0
190,210.19,408.0
191,210.24,542.0
192,210.29,490.0
193,210.35,509.0
194,210.4,468.0
195,210.45,469.0
196,210.51,511.0
197,210.56,498.0
198,210.61,651.0
199,210.67,635.0
200,210.72,569.0
201,210.77,617.0
202,210.83,571.0
203,210.88,465.0
204,210.93,616.0
205,210.99,566.0
206,211.04,577.0
207,211.09,573.0
208,211.14,607.0
209,211.2,763.0
210,211.25,649.0
211,211.3,690.0
212,211.36,657.0
213,211.41,765.0
214,211.46,968.0
215,211.52,690.0
216,211.57,731.0
217,211.62,612.0
218,211.68,683.0
219,211.73,897.0
220,211.78,843.0
221,211.84,779.0
222,211.89,758.0
223,211.94,737.0
224,212.0,733.0
225,212.05,879.0
226,212.1,1024.0
227,212.16,778.0
228,212.21,813.0
229,212.26,746.0
230,212.32,1108.0
231,212.37,849.0
232,212.42,909.0
233,212.48,1018.0
234,212.53,811.0
235,212.58,779.0
236,212.64,919.0
237,212.69,852.0
238,212.74,919.0
239,212.8,891.0
240,212.85,988.0
241,212.9,917.0
242,212.96,1070.0
243,213.01,799.0
244,213.06,1222.0
245,213.12,961.0
246,213.17,955.0
247,213.22,698.0
248,213.27,952.0
249,213.33,808.0
250,213.38,883.0
251,213.43,993.0
252,213.49,939.0
253,213.54,815.0
254,213.59,1110.0
255,213.65,953.0
256,213.7,959.0
257,213.75,925.0
258,213.81,968.0
259,213.86,1068.0
260,213.91,849.0
261,213.97,839.0
262,214.02,1033.0
263,214.07,861.0
264,214.13,956.0
265,214.18,764.0
266,214.23,1102.0
267,214.29,1148.0
268,214.34,945.0
269,214.39,955.0
270,214.44,1240.0
271,214.5,852.0
272,214.55,844.0
273,214.6,834.0
274,214.66,950.0
275,214.71,887.0
276,214.76,886.0
277,214.82,1121.0
278,214.87,1085.0
279,214.92,1064.0
280,214.98,1116.0
281,215.03,1224.0
282,215.08,1181.0
283,215.14,1156.0
284,215.19,1108.0
285,215.24,1203.0
286,215.29,1342.0
287,215.35,1090.0
288,215.4,1162.0
289,215.45,1099.0
290,215.51,1428.0
291,215.56,874.0
292,215.61,1017.0
293,215.67,986.0
294,215.72,1134.0
295,215.77,1013.0
296,215.83,1131.0
297,215.88,908.0
298,215.93,1229.0
299,215.98,920.0
300,216.04,915.0
301,216.09,1117.0
302,216.14,1036.0
303,216.2,938.0
304,216.25,1084.0
305,216.3,1191.0
306,216.36,1405.0
307,216.41,1141.0
308,216.46,1003.0
309,216.51,937.0
310,216.57,1256.0
311,216.62,974.0
312,216.67,1031.0
313,216.73,1219.0
314,216.78,843.0
315,216.83,1089.0
316,216.89,1197.0
317,216.94,1075.0
318,216.99,1144.0
319,217.05,1101.0
320,217.1,1157.0
321,217.15,928.0
322,217.2,1186.0
323,217.26,1127.0
324,217.31,1161.0
325,217.36,1134.0
326,217.42,1008.0
327,217.47,1116.0
328,217.52,1546.0
329,217.58,1330.0
330,217.63,1405.0
331,217.68,1315.0
332,217.73,1380.0
333,217.79,998.0
334,217.84,1159.0
335,217.89,988.0
336,217.95,1092.0
337,218.0,1157.0
338,218.05,1087.0
339,218.1,1175.0
340,218.16,896.0
341,218.21,1395.0
342,218.26,1019.0
343,218.32,1235.0
344,218.37,990.0
345,218.42,1221.0
346,218.48,1156.0
347,218.53,911.0
348,218.58,1474.0
349,218.63,966.0
350,218.69,1205.0
351,218.74,1205.0
352,218.79,1272.0
353,218.85,1242.0
354,218.9,1319.0
355,218.95,1416.0
356,219.0,1125.0
357,219.06,1255.0
358,219.11,1259.0
359,219.16,1137.0
360,219.22,1222.0
361,219.27,1148.0
362,219.32,1312.0
363,219.37,995.0
364,219.43,1065.0
365,219.48,1072.0
366,219.53,1352.0
367,219.59,1149.0
368,219.64,1378.0
369,219.69,1222.0
370,219.75,1178.0
371,219.8,1189.0
372,219.85,903.0
373,219.9,1052.0
374,219.96,1295.0
375,220.01,1216.0
376,220.06,1231.0
377,220.12,1127.0
378,220.17,1322.0
379,220.22,1215.0
380,220.27,1202.0
381,220.33,1355.0
382,220.38,1508.0
383,220.43,1700.0
384,220.49,1476.0
385,220.54,1622.0
386,220.59,1244.0
387,220.64,1131.0
388,220.7,1262.0
389,220.75,1351.0
390,220.8,1259.0
391,220.86,1301.0
392,220.91,1578.0
393,220.96,1428.0
394,221.01,1348.0
395,221.07,1349.0
396,221.12,1751.0
397,221.17,1216.0
398,221.22,1246.0
399,221.28,1279.0
400,221.33,1335.0
401,221.38,1423.0
402,221.44,1436.0
403,221.49,994.0
404,221.54,1106.0
405,221.59,1165.0
406,221.65,1222.0
407,221.7,1117.0
408,221.75,1105.0
409,221.81,1000.0
410,221.86,1229.0
411,221.91,1208.0
412,221.96,1257.0
413,222.02,928.0
414,222.07,1020.0
415,222.12,1248.0
416,222.17,1288.0
417,222.23,1312.0
418,222.28,1198.0
419,222.33,1559.0
420,222.39,1330.0
421,222.44,1131.0
422,222.49,1558.0
423,222.54,1318.0
424,222.6,1150.0
425,222.65,1082.0
426,222.7,1072.0
427,222.75,1298.0
428,222.81,1321.0
429,222.86,1428.0
430,222.91,1197.0
431,222.97,813.0
432,223.02,1253.0
433,223.07,1274.0
434,223.12,1064.0
435,223.18,986.0
436,223.23,1081.0
437,223.28,1142.0
438,223.33,1461.0
439,223.39,999.0
440,223.44,1147.0
441,223.49,1096.0
442,223.55,1259.0
443,223.6,1074.0
444,223.65,1304.0
445,223.7,1135.0
446,223.76,1152.0
447,223.81,1147.0
448,223.86,1431.0
449,223.91,1023.0
450,223.97,1238.0
451,224.02,1127.0
452,224.07,1022.0
453,224.12,1211.0
454,224.18,1280.0
455,224.23,1300.0
456,224.28,1672.0
457,224.34,1216.0
458,224.39,1222.0
459,224.44,1357.0
460,224.49,1166.0
461,224.55,921.0
462,224.6,1180.0
463,224.65,1262.0
464,224.7,1181.0
465,224.76,1046.0
466,224.81,1301.0
467,224.86,1127.0
468,224.91,1331.0
469,224.97,1024.0
470,225.02,1125.0
471,225.07,1416.0
472,225.12,1136.0
473,225.18,1631.0
474,225.23,1144.0
475,225.28,1266.0
476,225.34,1486.0
477,225.39,1009.0
478,225.44,1018.0
479,225.49,1303.0
480,225.55,1063.0
481,225.6,1570.0
482,225.65,995.0
483,225.7,1144.0
484,225.76,1276.0
485,225.81,1199.0
486,225.86,1125.0
487,225.91,1165.0
488,225.97,1014.0
489,226.02,1261.0
490,226.07,1376.0
491,226.12,1238.0
492,226.18,1555.0
493,226.23,1248.0
494,226.28,1409.0
495,226.33,1357.0
496,226.39,1537.0
497,226.44,2109.0
498,226.49,1624.0
499,226.54,1234.0
500,226.6,1581.0
501,226.65,1198.0
502,226.7,1227.0
503,226.75,1403.0
504,226.81,1557.0
505,226.86,1372.0
506,226.91,1699.0
507,226.96,1851.0
508,227.02,1868.0
509,227.07,2030.0
510,227.12,1672.0
511,227.17,1371.0
512,227.23,1208.0
513,227.28,1047.0
514,227.33,1227.0
515,227.38,975.0
516,227.44,1366.0
517,227.49,1301.0
518,227.54,1248.0
519,227.59,1191.0
520,227.65,1196.0
521,227.7,1016.0
522,227.75,1365.0
523,227.8,1121.0
524,227.86,1168.0
525,227.91,1041.0
526,227.96,954.0
527,228.01,1264.0
528,228.07,1201.0
529,228.12,1313.0
530,228.17,1145.0
531,228.22,874.0
532,228.28,1458.0
533,228.33,1208.0
534,228.38,1215.0
535,228.43,1156.0
536,228.49,1077.0
537,228.54,1036.0
538,228.59,1368.0
539,228.64,1161.0
540,228.7,1194.0
541,228.75,1050.0
542,228.8,1376.0
543,228.85,1103.0
544,228.91,1247.0
545,228.96,910.0
546,229.01,993.0
547,229.06,1079.0
548,229.11,1434.0
549,229.17,1175.0
550,229.22,1189.0
551,229.27,1104.0
552,229.32,1116.0
553,229.38,1224.0
554,229.43,1322.0
555,229.48,1038.0
556,229.53,1292.0
557,229.59,1405.0
558,229.64,1084.0
559,229.69,1348.0
560,229.74,1177.0
561,229.8,1255.0
562,229.85,983.0
563,229.9,1265.0
564,229.95,1152.0
565,230.01,990.0
566,230.06,1564.0
567,230.11,1057.0
568,230.16,1147.0
569,230.21,1171.0
570,230.27,1429.0
571,230.32,1149.0
572,230.37,1175.0
573,230.42,1309.0
574,230.48,1002.0
575,230.53,1386.0
576,230.58,895.0
577,230.63,1445.0
578,230.69,1317.0
579,230.74,1440.0
580,230.79,1115.0
581,230.84,1031.0
582,230.89,1381.0
583,230.95,1096.0
584,231.0,978.0
585,231.05,1207.0
586,231.1,1506.0
587,231.16,1266.0
588,231.21,1312.0
589,231.26,1394.0
590,231.31,1320.0
591,231.37,1524.0
592,231.42,1645.0
593,231.47,1577.0
594,231.52,1557.0
595,231.57,1343.0
596,231.63,1298.0
597,231.68,1722.0
598,231.73,1779.0
599,231.78,1056.0
600,231.84,1426.0
601,231.89,1128.0
602,231.94,1611.0
603,231.99,1141.0
604,232.05,1664.0
605,232.1,1068.0
606,232.15,1116.0
607,232.2,1225.0
608,232.25,1319.0
609,232.31,1447.0
610,232.36,1350.0
611,232.41,1167.0
612,232.46,1271.0
613,232.52,1443.0
614,232.57,1466.0
615,232.62,1378.0
616,232.67,1252.0
617,232.72,1269.0
618,232.78,1254.0
619,232.83,1044.0
620,232.88,1213.0
621,232.93,1209.0
622,232.98,1409.0
623,233.04,1192.0
624,233.09,1090.0
625,233.14,992.0
626,233.19,1301.0
627,233.25,1312.0
628,233.3,1056.0
629,233.35,1106.0
630,233.4,1294.0
631,233.45,1172.0
632,233.51,1242.0
633,233.56,1007.0
634,233.61,1165.0
635,233.66,1230.0
636,233.72,984.0
637,233.77,1322.0
638,233.82,1278.0
639,233.87,1404.0
640,233.92,1261.0
641,233.98,1139.0
642,234.03,1237.0
643,234.08,1172.0
644,234.13,1152.0
645,234.18,1054.0
646,234.24,1114.0
647,234.29,1186.0
648,234.34,960.0
649,234.39,1117.0
650,234.45,1489.0
651,234.5,1128.0
652,234.55,1575.0
653,234.6,1191.0
654,234.65,1301.0
655,234.71,1162.0
656,234.76,1016.0
657,234.81,1579.0
658,234.86,1290.0
659,234.91,1248.0
660,234.97,1337.0
661,235.02,1147.0
662,235.07,1406.0
663,235.12,1110.0
664,235.17,1052.0
665,235.23,1394.0
666,235.28,1326.0
667,235.33,1252.0
668,235.38,1567.0
669,235.44,1213.0
670,235.49,1555.0
671,235.54,1208.0
672,235.59,1214.0
673,235.64,1035.0
674,235.7,935.0
675,235.75,1093.0
676,235.8,1392.0
677,235.85,1134.0
678,235.9,1110.0
679,235.96,1333.0
680,236.01,1413.0
681,236.06,1559.0
682,236.11,1307.0
683,236.16,1458.0
684,236.22,1227.0
685,236.27,1252.0
686,236.32,1690.0
687,236.37,1143.0
688,236.42,1489.0
689,236.48,1299.0
690,236.53,1504.0
691,236.58,1488.0
692,236.63,1502.0
693,236.68,1804.0
694,236.74,2002.0
695,236.79,2439.0
696,236.84,2342.0
697,236.89,2184.0
698,236.94,2330.0
699,237.0,2154.0
700,237.05,1830.0
701,237.1,1938.0
702,237.15,1682.0
703,237.2,1886.0
704,237.26,1915.0
705,237.31,2708.0
706,237.36,2777.0
707,237.41,3192.0
708,237.46,3437.0
709,237.52,2499.0
710,237.57,1976.0
711,237.62,1582.0
712,237.67,1798.0
713,237.72,1602.0
714,237.78,1332.0
715,237.83,1367.0
716,237.88,1655.0
717,237.93,1198.0
718,237.98,1839.0
719,238.03,1149.0
720,238.09,1244.0
721,238.14,1295.0
722,238.19,1391.0
723,238.24,1359.0
724,238.29,1185.0
725,238.35,1891.0
726,238.4,1256.0
727,238.45,1341.0
728,238.5,1234.0
729,238.55,960.0
730,238.61,1404.0
731,238.66,1477.0
732,238.71,1181.0
733,238.76,1152.0
734,238.81,1384.0
735,238.87,1293.0
736,238.92,1367.0
737,238.97,1286.0
738,239.02,1272.0
739,239.07,1045.0
740,239.12,1481.0
741,239.18,973.0
742,239.23,1367.0
743,239.28,1391.0
744,239.33,1439.0
745,239.38,1048.0
746,239.44,1079.0
747,239.49,1219.0
748,239.54,1326.0
749,239.59,1639.0
750,239.64,1392.0
751,239.7,1199.0
752,239.75,1200.0
753,239.8,1448.0
754,239.85,1292.0
755,239.9,1175.0
756,239.95,1196.0
757,240.01,1063.0
758,240.06,1250.0
759,240.11,1157.0
760,240.16,1084.0
761,240.21,993.0
762,240.27,1018.0
763,240.32,1114.0
764,240.37,1183.0
765,240.42,1205.0
766,240.47,935.0
767,240.52,1244.0
768,240.58,1121.0
769,240.63,1199.0
770,240.68,1231.0
771,240.73,1187.0
772,240.78,1002.0
773,240.83,1286.0
774,240.89,1186.0
775,240.94,1103.0
776,240.99,1050.0
777,241.04,1256.0
778,241.09,889.0
779,241.15,896.0
780,241.2,1184.0
781,241.25,1162.0
782,241.3,1218.0
783,241.35,1068.0
784,241.4,1234.0
785,241.46,965.0
786,241.51,1399.0
787,241.56,1412.0
788,241.61,1164.0
789,241.66,1696.0
790,241.71,1201.0
791,241.77,927.0
792,241.82,1322.0
793,241.87,1433.0
794,241.92,900.0
795,241.97,898.0
796,242.02,1108.0
797,242.08,934.0
798,242.13,1433.0
799,242.18,1241.0
800,242.23,1167.0
801,242.28,1261.0
802,242.34,1109.0
803,242.39,1080.0
804,242.44,1035.0
805,242.49,1255.0
806,242.54,1409.0
807,242.59,1048.0
808,242.65,1238.0
809,242.7,1149.0
810,242.75,1140.0
811,242.8,1192.0
812,242.85,1112.0
813,242.9,1076.0
814,242.96,1067.0
815,243.01,1323.0
816,243.06,1338.0
817,243.11,1283.0
818,243.16,1144.0
819,243.21,1297.0
820,243.27,994.0
821,243.32,914.0
822,243.37,1136.0
823,243.42,1311.0
824,243.47,929.0
825,243.52,1092.0
826,243.57,1215.0
827,243.63,821.0
828,243.68,1256.0
829,243.73,1140.0
830,243.78,1044.0
831,243.83,1031.0
832,243.88,1081.0
833,243.94,1129.0
834,243.99,1296.0
835,244.04,1047.0
836,244.09,1230.0
837,244.14,1224.0
838,244.19,1083.0
839,244.25,1199.0
840,244.3,1278.0
841,244.35,1160.0
842,244.4,1072.0
843,244.45,1221.0
844,244.5,1216.0
845,244.56,1378.0
846,244.61,1278.0
847,244.66,1315.0
848,244.71,1129.0
849,244.76,1395.0
850,244.81,1065.0
851,244.86,1252.0
852,244.92,1244.0
853,244.97,1036.0
854,245.02,1392.0
855,245.07,1030.0
856,245.12,1118.0
857,245.17,1345.0
858,245.23,1130.0
859,245.28,1231.0
860,245.33,1181.0
861,245.38,1266.0
862,245.43,947.0
863,245.48,1312.0
864,245.53,1290.0
865,245.59,1252.0
866,245.64,1381.0
867,245.69,869.0
868,245.74,1274.0
869,245.79,1104.0
870,245.84,1234.0
871,245.9,1142.0
872,245.95,1303.0
873,246.0,1238.0
874,246.05,1410.0
875,246.1,1146.0
876,246.15,1045.0
877,246.2,1441.0
878,246.26,1295.0
879,246.31,1366.0
880,246.36,1061.0
881,246.41,1426.0
882,246.46,1301.0
883,246.51,1139.0
884,246.56,1329.0
885,246.62,1342.0
886,246.67,1397.0
887,246.72,1048.0
888,246.77,1092.0
889,246.82,1224.0
890,246.87,1359.0
891,246.92,1434.0
892,246.98,1218.0
893,247.03,1051.0
894,247.08,1018.0
895,247.13,1407.0
896,247.18,1077.0
897,247.23,1038.0
898,247.28,1150.0
899,247.34,1060.0
900,247.39,1252.0
901,247.44,1164.0
902,247.49,1105.0
903,247.54,1050.0
904,247.59,1042.0
905,247.64,1093.0
906,247.7,982.0
907,247.75,1424.0
908,247.8,855.0
909,247.85,1130.0
910,247.9,1355.0
911,247.95,1106.0
912,248.0,1250.0
913,248.06,997.0
914,248.11,999.0
915,248.16,1719.0
916,248.21,833.0
917,248.26,1086.0
918,248.31,1451.0
919,248.36,1139.0
920,248.41,1476.0
921,248.47,1118.0
922,248.52,1359.0
923,248.57,1225.0
924,248.62,1268.0
925,248.67,1321.0
926,248.72,1015.0
927,248.77,1063.0
928,248.83,1093.0
929,248.88,1077.0
930,248.93,1371.0
931,248.98,1351.0
932,249.03,1214.0
933,249.08,1354.0
934,249.13,1057.0
935,249.18,1561.0
936,249.24,1272.0
937,249.29,1414.0
938,249.34,1197.0
939,249.39,1162.0
940,249.44,1137.0
941,249.49,961.0
942,249.54,1179.0
943,249.6,1246.0
944,249.65,1121.0
945,249.7,1350.0
946,249.75,939.0
947,249.8,981.0
948,249.85,1107.0
949,249.9,1468.0
950,249.95,1345.0
951,250.01,1001.0
952,250.06,1229.0
953,250.11,1029.0
954,250.16,1014.0
955,250.21,1110.0
956,250.26,911.0
957,250.31,1116.0
958,250.36,1451.0
959,250.42,1220.0
960,250.47,1181.0
961,250.52,1073.0
962,250.57,1150.0
963,250.62,887.0
964,250.67,1292.0
965,250.72,1140.0
966,250.77,1121.0
967,250.83,942.0
968,250.88,1224.0
969,250.93,1135.0
970,250.98,1060.0
971,251.03,900.0
972,251.08,1141.0
973,251.13,1437.0
974,251.18,1216.0
975,251.23,959.0
976,251.29,974.0
977,251.34,1120.0
978,251.39,1123.0
979,251.44,1205.0
980,251.49,1144.0
981,251.54,1252.0
982,251.59,1284.0
983,251.64,1205.0
984,251.7,1051.0
985,251.75,1345.0
986,251.8,1252.0
987,251.85,1025.0
988,251.9,1387.0
989,251.95,1137.0
990,252.0,1361.0
991,252.05,881.0
992,252.1,1391.0
993,252.16,1083.0
994,252.21,1143.0
995,252.26,1054.0
996,252.31,1141.0
997,252.36,1213.0
998,252.41,1266.0
999,252.46,1263.0
1000,252.51,1149.0
1001,252.56,956.0
1002,252.62,1193.0
1003,252.67,960.0
1004,252.72,1324.0
1005,252.77,1114.0
1006,252.82,1346.0
1007,252.87,1190.0
1008,252.92,1396.0
1009,252.97,1293.0
1010,253.02,1219.0
1011,253.08,1506.0
1012,253.13,1081.0
1013,253.18,949.0
1014,253.23,1075.0
1015,253.28,1001.0
1016,253.33,1115.0
1017,253.38,1130.0
1018,253.43,1155.0
1019,253.48,921.0
1020,253.54,1421.0
1021,253.59,1193.0
1022,253.64,1461.0
1023,253.69,1097.0
1024,253.74,1027.0
1025,253.79,1074.0
1026,253.84,1165.0
1027,253.89,1420.0
1028,253.94,1227.0
1029,254.0,1093.0
1030,254.05,1315.0
1031,254.1,1020.0
1032,254.15,960.0
1033,254.2,1101.0
1034,254.25,1061.0
1035,254.3,1021.0
1036,254.35,960.0
1037,254.4,963.0
1038,254.45,1171.0
1039,254.51,1286.0
1040,254.56,1131.0
1041,254.61,1169.0
1042,254.66,1458.0
1043,254.71,1297.0
1044,254.76,1313.0
1045,254.81,971.0
1046,254.86,1203.0
1047,254.91,1144.0
1048,254.96,1457.0
1049,255.02,1152.0
1050,255.07,1264.0
1051,255.12,1187.0
1052,255.17,1142.0
1053,255.22,1180.0
1054,255.27,1068.0
1055,255.32,901.0
1056,255.37,1208.0
1057,255.42,1006.0
1058,255.47,1100.0
1059,255.52,1081.0
1060,255.58,959.0
1061,255.63,1209.0
1062,255.68,1145.0
1063,255.73,1269.0
1064,255.78,1113.0
1065,255.83,1065.0
1066,255.88,1089.0
1067,255.93,1034.0
1068,255.98,1203.0
1069,256.03,938.0
1070,256.08,1163.0
1071,256.14,968.0
1072,256.19,1429.0
1073,256.24,1209.0
1074,256.29,1203.0
1075,256.34,1127.0
1076,256.39,970.0
1077,256.44,1132.0
1078,256.49,1345.0
1079,256.54,1213.0
1080,256.59,1460.0
1081,256.64,1406.0
1082,256.7,1496.0
1083,256.75,1210.0
1084,256.8,1297.0
1085,256.85,1885.0
1086,256.9,1873.0
1087,256.95,2287.0
1088,257.0,1833.0
1089,257.05,1352.0
1090,257.1,1943.0
1091,257.15,1552.0
1092,257.2,1032.0
1093,257.26,1416.0
1094,257.31,1286.0
1095,257.36,1217.0
1096,257.41,1058.0
1097,257.46,1801.0
1098,257.51,2134.0
1099,257.56,2364.0
1100,257.61,2491.0
1101,257.66,2300.0
1102,257.71,2297.0
1103,257.76,2144.0
1104,257.81,1756.0
1105,257.87,1421.0
1106,257.92,1534.0
1107,257.97,1214.0
1108,258.02,1250.0
1109,258.07,1505.0
1110,258.12,1937.0
1111,258.17,1254.0
1112,258.22,1257.0
1113,258.27,1310.0
1114,258.32,1109.0
1115,258.37,1056.0
1116,258.42,1475.0
1117,258.47,922.0
1118,258.53,1223.0
1119,258.58,1188.0
1120,258.63,1718.0
1121,258.68,1197.0
1122,258.73,899.0
1123,258.78,1229.0
1124,258.83,1208.0
1125,258.88,1272.0
1126,258.93,1321.0
1127,258.98,1111.0
1128,259.03,1387.0
1129,259.08,1205.0
1130,259.13,1490.0
1131,259.19,1164.0
1132,259.24,1338.0
1133,259.29,995.0
1134,259.34,1541.0
1135,259.39,1372.0
1136,259.44,1146.0
1137,259.49,1238.0
1138,259.54,1416.0
1139,259.59,1080.0
