,Wavelength,Sum
0,197.2,15
1,197.26,17
2,197.31,-31
3,197.36,30
4,197.42,-31
5,197.47,-2
6,197.53,25
7,197.58,-121
8,197.63,-56
9,197.69,3
10,197.74,48
11,197.8,-13
12,197.85,-32
13,197.9,-67
14,197.96,-94
15,198.01,-5
16,198.07,-8
17,198.12,-17
18,198.17,19
19,198.23,-36
20,198.28,0
21,198.33,-5
22,198.39,-4
23,198.44,-12
24,198.5,11
25,198.55,-53
26,198.6,18
27,198.66,5
28,198.71,-3
29,198.77,24
30,198.82,-72
31,198.87,-8
32,198.93,-47
33,198.98,9
34,199.04,-11
35,199.09,-9
36,199.14,-25
37,199.2,1
38,199.25,67
39,199.3,11
40,199.36,26
41,199.41,-2
42,199.47,21
43,199.52,30
44,199.57,46
45,199.63,-34
46,199.68,26
47,199.74,-43
48,199.79,48
49,199.84,16
50,199.9,32
51,199.95,-8
52,200.0,-25
53,200.06,35
54,200.11,71
55,200.17,31
56,200.22,35
57,200.27,-24
58,200.33,-4
59,200.38,-62
60,200.43,-22
61,200.49,38
62,200.54,25
63,200.6,-13
64,200.65,-68
65,200.7,70
66,200.76,-18
67,200.81,17
68,200.87,6
69,200.92,-35
70,200.97,0
71,201.03,8
72,201.08,95
73,201.13,6
74,201.19,-51
75,201.24,17
76,201.3,9
77,201.35,26
78,201.4,38
79,201.46,57
80,201.51,-59
81,201.56,55
82,201.62,12
83,201.67,0
84,201.73,-3
85,201.78,-37
86,201.83,-8
87,201.89,-15
88,201.94,-9
89,201.99,-45
90,202.05,2
91,202.1,21
92,202.16,-21
93,202.21,44
94,202.26,-20
95,202.32,-8
96,202.37,-41
97,202.42,76
98,202.48,-107
99,202.53,45
100,202.58,9
101,202.64,-10
102,202.69,9
103,202.75,15
104,202.8,-29
105,202.85,27
106,202.91,-24
107,202.96,17
108,203.01,14
109,203.07,14
110,203.12,-30
111,203.18,17
112,203.23,49
113,203.28,68
114,203.34,38
115,203.39,-24
116,203.44,3
117,203.5,-15
118,203.55,-3
119,203.6,114
120,203.66,591
121,203.71,812
122,203.77,1035
123,203.82,1061
124,203.87,506
125,203.93,156
126,203.98,27
127,204.03,-12
128,204.09,37
129,204.14,36
130,204.19,11
131,204.25,-8
132,204.3,-35
133,204.36,61
134,204.41,289
135,204.46,712
136,204.52,949
137,204.57,647
138,204.62,37
139,204.68,-67
140,204.73,19
141,204.78,-5
142,204.84,12
143,204.89,11
144,204.95,-49
145,205.0,-40
146,205.05,8
147,205.11,37
148,205.16,48
149,205.21,40
150,205.27,11
151,205.32,-23
152,205.37,5
153,205.43,47
154,205.48,55
155,205.53,320
156,205.59,823
157,205.64,663
158,205.7,518
159,205.75,84
160,205.8,-45
161,205.86,6
162,205.91,42
163,205.96,72
164,206.02,-21
165,206.07,58
166,206.12,58
167,206.18,10
168,206.23,17
169,206.28,-4
170,206.34,6
171,206.39,-62
172,206.44,48
173,206.5,23
174,206.55,35
175,206.61,50
176,206.66,24
177,206.71,47
178,206.77,-74
179,206.82,-14
180,206.87,12
181,206.93,1
182,206.98,-10
183,207.03,-6
184,207.09,32
185,207.14,-35
186,207.19,11
187,207.25,66
188,207.3,-64
189,207.35,59
190,207.41,17
191,207.46,20
192,207.51,34
193,207.57,-23
194,207.62,34
195,207.68,-1
196,207.73,-17
197,207.78,48
198,207.84,13
199,207.89,14
200,207.94,50
201,208.0,-24
202,208.05,45
203,208.1,65
204,208.16,22
205,208.21,48
206,208.26,51
207,208.32,13
208,208.37,-37
209,208.42,48
210,208.48,7
211,208.53,-6
212,208.58,5
213,208.64,-6
214,208.69,47
215,208.74,-38
216,208.8,40
217,208.85,55
218,208.9,64
219,208.96,100
220,209.01,88
221,209.06,119
222,209.12,48
223,209.17,47
224,209.22,41
225,209.28,29
226,209.33,56
227,209.38,43
228,209.44,-8
229,209.49,45
230,209.54,37
231,209.6,1
232,209.65,40
233,209.7,19
234,209.76,27
235,209.81,-5
236,209.87,131
237,209.92,93
238,209.97,152
239,210.03,162
240,210.08,180
241,210.13,78
242,210.19,57
243,210.24,117
244,210.29,150
245,210.35,205
246,210.4,240
247,210.45,487
248,210.51,765
249,210.56,976
250,210.61,1527
251,210.67,1091
252,210.72,1008
253,210.77,399
254,210.83,211
255,210.88,168
256,210.93,116
257,210.99,193
258,211.04,162
259,211.09,396
260,211.14,633
261,211.2,1043
262,211.25,1267
263,211.3,1412
264,211.36,1709
265,211.41,1343
266,211.46,1402
267,211.52,782
268,211.57,715
269,211.62,543
270,211.68,494
271,211.73,826
272,211.78,926
273,211.84,904
274,211.89,966
275,211.94,882
276,212.0,998
277,212.05,806
278,212.1,1093
279,212.16,920
280,212.21,996
281,212.26,1070
282,212.32,1834
283,212.37,1627
284,212.42,1801
285,212.48,1587
286,212.53,1288
287,212.58,1178
288,212.64,1700
289,212.69,1585
290,212.74,1838
291,212.8,1719
292,212.85,1310
293,212.9,903
294,212.96,1043
295,213.01,820
296,213.06,954
297,213.12,934
298,213.17,960
299,213.22,698
300,213.27,1029
301,213.33,900
302,213.38,1036
303,213.43,1289
304,213.49,1372
305,213.54,1585
306,213.59,2337
307,213.65,2331
308,213.7,2149
309,213.75,2377
310,213.81,2073
311,213.86,1827
312,213.91,1454
313,213.97,1021
314,214.02,1257
315,214.07,839
316,214.13,858
317,214.18,720
318,214.23,963
319,214.29,1059
320,214.34,762
321,214.39,806
322,214.44,1001
323,214.5,670
324,214.55,660
325,214.6,706
326,214.66,770
327,214.71,691
328,214.76,898
329,214.82,1109
330,214.87,1226
331,214.92,1702
332,214.98,1780
333,215.03,2192
334,215.08,1713
335,215.14,1322
336,215.19,1172
337,215.24,1083
338,215.29,1201
339,215.35,967
340,215.4,1090
341,215.45,935
342,215.51,1016
343,215.56,655
344,215.61,644
345,215.67,810
346,215.72,664
347,215.77,465
348,215.83,534
349,215.88,493
350,215.93,658
351,215.98,485
352,216.04,523
353,216.09,658
354,216.14,719
355,216.2,620
356,216.25,873
357,216.3,884
358,216.36,1114
359,216.41,956
360,216.46,833
361,216.51,809
362,216.57,1055
363,216.62,928
364,216.67,781
365,216.73,1019
366,216.78,501
367,216.83,552
368,216.89,553
369,216.94,411
370,216.99,578
371,217.05,507
372,217.1,537
373,217.15,517
374,217.2,604
375,217.26,618
376,217.31,872
377,217.36,733
378,217.42,773
379,217.47,741
380,217.52,1128
381,217.58,1147
382,217.63,1203
383,217.68,1277
384,217.73,1517
385,217.79,1091
386,217.84,1370
387,217.89,1318
388,217.95,1911
389,218.0,2283
390,218.05,2532
391,218.1,2164
392,218.16,1504
393,218.21,1976
394,218.26,1212
395,218.32,1405
396,218.37,909
397,218.42,1037
398,218.48,1143
399,218.53,847
400,218.58,1225
401,218.63,807
402,218.69,1123
403,218.74,1124
404,218.79,1204
405,218.85,1263
406,218.9,1480
407,218.95,1934
408,219.0,1781
409,219.06,2313
410,219.11,2402
411,219.16,2031
412,219.22,2136
413,219.27,2285
414,219.32,2981
415,219.37,2214
416,219.43,2114
417,219.48,1683
418,219.53,1735
419,219.59,1271
420,219.64,1532
421,219.69,1368
422,219.75,1410
423,219.8,1430
424,219.85,982
425,219.9,1143
426,219.96,1585
427,220.01,1898
428,220.06,2114
429,220.12,1884
430,220.17,1828
431,220.22,1355
432,220.27,1258
433,220.33,1276
434,220.38,1331
435,220.43,1377
436,220.49,1164
437,220.54,1296
438,220.59,925
439,220.64,972
440,220.7,983
441,220.75,1119
442,220.8,1145
443,220.86,1157
444,220.91,1431
445,220.96,1432
446,221.01,1496
447,221.07,1767
448,221.12,2621
449,221.17,1758
450,221.22,1799
451,221.28,1743
452,221.33,1532
453,221.38,1503
454,221.44,1616
455,221.49,1230
456,221.54,1458
457,221.59,1461
458,221.65,1750
459,221.7,1525
460,221.75,1418
461,221.81,1474
462,221.86,2593
463,221.91,2244
464,221.96,2487
465,222.02,1508
466,222.07,1322
467,222.12,1639
468,222.17,1395
469,222.23,1290
470,222.28,1211
471,222.33,1416
472,222.39,1242
473,222.44,1040
474,222.49,1476
475,222.54,1318
476,222.6,1185
477,222.65,1296
478,222.7,1279
479,222.75,1879
480,222.81,1950
481,222.86,2529
482,222.91,2417
483,222.97,1574
484,223.02,2618
485,223.07,2540
486,223.12,2071
487,223.18,1811
488,223.23,1680
489,223.28,1410
490,223.33,1673
491,223.39,1278
492,223.44,1238
493,223.49,1165
494,223.55,1198
495,223.6,1073
496,223.65,1194
497,223.7,1130
498,223.76,1159
499,223.81,1170
500,223.86,1343
501,223.91,952
502,223.97,1196
503,224.02,1200
504,224.07,1144
505,224.12,1302
506,224.18,1597
507,224.23,2003
508,224.28,2959
509,224.34,2503
510,224.39,2638
511,224.44,2755
512,224.49,2192
513,224.55,1392
514,224.6,1806
515,224.65,2198
516,224.7,2238
517,224.76,2121
518,224.81,3097
519,224.86,2586
520,224.91,2736
521,224.97,1378
522,225.02,1511
523,225.07,1729
524,225.12,1340
525,225.18,1673
526,225.23,1186
527,225.28,1184
528,225.34,1307
529,225.39,881
530,225.44,983
531,225.49,1108
532,225.55,915
533,225.6,1190
534,225.65,901
535,225.7,1068
536,225.76,959
537,225.81,984
538,225.86,828
539,225.91,953
540,225.97,797
541,226.02,1018
542,226.07,875
543,226.12,789
544,226.18,1067
545,226.23,871
546,226.28,924
547,226.33,888
548,226.39,953
549,226.44,1238
550,226.49,1060
551,226.54,957
552,226.6,1249
553,226.65,905
554,226.7,1072
555,226.75,1127
556,226.81,1139
557,226.86,921
558,226.91,931
559,226.96,935
560,227.02,834
561,227.07,976
562,227.12,807
563,227.17,888
564,227.23,776
565,227.28,686
566,227.33,815
567,227.38,718
568,227.44,1055
569,227.49,985
570,227.54,1064
571,227.59,1044
572,227.65,1394
573,227.7,1354
574,227.75,2009
575,227.8,1371
576,227.86,1275
577,227.91,892
578,227.96,756
579,228.01,835
580,228.07,894
581,228.12,890
582,228.17,833
583,228.22,617
584,228.28,866
585,228.33,736
586,228.38,662
587,228.43,635
588,228.49,561
589,228.54,680
590,228.59,739
591,228.64,732
592,228.7,736
593,228.75,689
594,228.8,937
595,228.85,876
596,228.91,823
597,228.96,695
598,229.01,699
599,229.06,747
600,229.11,1005
601,229.17,830
602,229.22,852
603,229.27,860
604,229.32,844
605,229.38,1133
606,229.43,1614
607,229.48,1375
608,229.53,1977
609,229.59,1783
610,229.64,1315
611,229.69,1232
612,229.74,1102
613,229.8,943
614,229.85,794
615,229.9,788
616,229.95,743
617,230.01,682
618,230.06,892
619,230.11,632
620,230.16,653
621,230.21,634
622,230.27,768
623,230.32,699
624,230.37,637
625,230.42,727
626,230.48,640
627,230.53,647
628,230.58,444
629,230.63,597
630,230.69,574
631,230.74,619
632,230.79,530
633,230.84,495
634,230.89,527
635,230.95,526
636,231.0,460
637,231.05,528
638,231.1,618
639,231.16,478
640,231.21,462
641,231.26,541
642,231.31,509
643,231.37,512
644,231.42,534
645,231.47,520
646,231.52,337
647,231.57,501
648,231.63,605
649,231.68,492
650,231.73,541
651,231.78,339
652,231.84,475
653,231.89,437
654,231.94,465
655,231.99,471
656,232.05,514
657,232.1,366
658,232.15,469
659,232.2,433
660,232.25,406
661,232.31,580
662,232.36,472
663,232.41,417
664,232.46,445
665,232.52,464
666,232.57,501
667,232.62,563
668,232.67,371
669,232.72,437
670,232.78,483
671,232.83,419
672,232.88,414
673,232.93,432
674,232.98,513
675,233.04,418
676,233.09,348
677,233.14,302
678,233.19,389
679,233.25,497
680,233.3,392
681,233.35,345
682,233.4,426
683,233.45,371
684,233.51,491
685,233.56,437
686,233.61,431
687,233.66,478
688,233.72,438
689,233.77,528
690,233.82,381
691,233.87,638
692,233.92,430
693,233.98,406
694,234.03,433
695,234.08,437
696,234.13,368
697,234.18,418
698,234.24,414
699,234.29,341
700,234.34,513
701,234.39,375
702,234.45,416
703,234.5,338
704,234.55,389
705,234.6,397
706,234.65,380
707,234.71,413
708,234.76,362
709,234.81,403
710,234.86,357
711,234.91,369
712,234.97,453
713,235.02,462
714,235.07,456
715,235.12,405
716,235.17,381
717,235.23,521
718,235.28,368
719,235.33,473
720,235.38,429
721,235.44,363
722,235.49,437
723,235.54,431
724,235.59,547
725,235.64,521
726,235.7,568
727,235.75,699
728,235.8,820
729,235.85,654
730,235.9,577
731,235.96,497
732,236.01,434
733,236.06,517
734,236.11,460
735,236.16,457
736,236.22,419
737,236.27,458
738,236.32,501
739,236.37,347
740,236.42,379
741,236.48,518
742,236.53,454
743,236.58,405
744,236.63,614
745,236.68,560
746,236.74,554
747,236.79,738
748,236.84,761
749,236.89,818
750,236.94,1379
751,237.0,1628
752,237.05,1648
753,237.1,1839
754,237.15,1526
755,237.2,1350
756,237.26,1055
757,237.31,1053
758,237.36,832
759,237.41,740
760,237.46,850
761,237.52,658
762,237.57,771
763,237.62,573
764,237.67,687
765,237.72,648
766,237.78,610
767,237.83,708
768,237.88,797
769,237.93,626
770,237.98,695
771,238.03,566
772,238.09,531
773,238.14,551
774,238.19,516
775,238.24,482
776,238.29,432
777,238.35,472
778,238.4,386
779,238.45,509
780,238.5,396
781,238.55,425
782,238.61,417
783,238.66,476
784,238.71,421
785,238.76,397
786,238.81,419
787,238.87,405
788,238.92,329
789,238.97,405
790,239.02,419
791,239.07,374
792,239.12,513
793,239.18,357
794,239.23,395
795,239.28,518
796,239.33,464
797,239.38,371
798,239.44,465
799,239.49,454
800,239.54,474
801,239.59,371
802,239.64,450
803,239.7,477
804,239.75,362
805,239.8,506
806,239.85,450
807,239.9,518
808,239.95,581
809,240.01,870
810,240.06,1034
811,240.11,992
812,240.16,872
813,240.21,737
814,240.27,594
815,240.32,748
816,240.37,731
817,240.42,853
818,240.47,755
819,240.52,914
820,240.58,953
821,240.63,900
822,240.68,811
823,240.73,876
824,240.78,682
825,240.83,813
826,240.89,623
827,240.94,590
828,240.99,605
829,241.04,650
830,241.09,529
831,241.15,578
832,241.2,482
833,241.25,599
834,241.3,504
835,241.35,513
836,241.4,552
837,241.46,474
838,241.51,604
839,241.56,649
840,241.61,473
841,241.66,583
842,241.71,458
843,241.77,421
844,241.82,523
845,241.87,507
846,241.92,384
847,241.97,400
848,242.02,469
849,242.08,582
850,242.13,474
851,242.18,507
852,242.23,377
853,242.28,457
854,242.34,422
855,242.39,460
856,242.44,468
857,242.49,489
858,242.54,609
859,242.59,496
860,242.65,615
861,242.7,543
862,242.75,601
863,242.8,665
864,242.85,581
865,242.9,554
866,242.96,502
867,243.01,559
868,243.06,607
869,243.11,513
870,243.16,420
871,243.21,504
872,243.27,476
873,243.32,436
874,243.37,561
875,243.42,525
876,243.47,427
877,243.52,567
878,243.57,403
879,243.63,373
880,243.68,467
881,243.73,514
882,243.78,452
883,243.83,484
884,243.88,411
885,243.94,468
886,243.99,544
887,244.04,537
888,244.09,505
889,244.14,548
890,244.19,471
891,244.25,673
892,244.3,609
893,244.35,473
894,244.4,575
895,244.45,682
896,244.5,491
897,244.56,711
898,244.61,625
899,244.66,664
900,244.71,600
901,244.76,632
902,244.81,474
903,244.86,531
904,244.92,631
905,244.97,553
906,245.02,603
907,245.07,490
908,245.12,522
909,245.17,576
910,245.23,479
911,245.28,530
912,245.33,588
913,245.38,490
914,245.43,343
915,245.48,480
916,245.53,540
917,245.59,561
918,245.64,468
919,245.69,414
920,245.74,521
921,245.79,469
922,245.84,469
923,245.9,439
924,245.95,388
925,246.0,525
926,246.05,573
927,246.1,389
928,246.15,482
929,246.2,475
930,246.26,565
931,246.31,593
932,246.36,487
933,246.41,558
934,246.46,494
935,246.51,487
936,246.56,523
937,246.62,554
938,246.67,456
939,246.72,412
940,246.77,518
941,246.82,452
942,246.87,474
943,246.92,591
944,246.98,533
945,247.03,624
946,247.08,603
947,247.13,618
948,247.18,520
949,247.23,535
950,247.28,469
951,247.34,596
952,247.39,718
953,247.44,733
954,247.49,714
955,247.54,749
956,247.59,709
957,247.64,694
958,247.7,551
959,247.75,706
960,247.8,625
961,247.85,925
962,247.9,1046
963,247.95,906
964,248.0,1088
965,248.06,739
966,248.11,675
967,248.16,820
968,248.21,518
969,248.26,585
970,248.31,702
971,248.36,626
972,248.41,769
973,248.47,554
974,248.52,719
975,248.57,750
976,248.62,908
977,248.67,893
978,248.72,766
979,248.77,774
980,248.83,848
981,248.88,789
982,248.93,993
983,248.98,1020
984,249.03,886
985,249.08,1129
986,249.13,867
987,249.18,1087
988,249.24,879
989,249.29,978
990,249.34,863
991,249.39,816
992,249.44,664
993,249.49,586
994,249.54,654
995,249.6,694
996,249.65,711
997,249.7,709
998,249.75,548
999,249.8,556
1000,249.85,638
1001,249.9,644
1002,249.95,627
1003,250.01,613
1004,250.06,553
1005,250.11,566
1006,250.16,533
1007,250.21,614
1008,250.26,545
1009,250.31,703
1010,250.36,780
1011,250.42,755
1012,250.47,638
1013,250.52,633
1014,250.57,816
1015,250.62,783
1016,250.67,1104
1017,250.72,908
1018,250.77,963
1019,250.83,777
1020,250.88,944
1021,250.93,965
1022,250.98,833
1023,251.03,738
1024,251.08,997
1025,251.13,1017
1026,251.18,923
1027,251.23,707
1028,251.29,818
1029,251.34,805
1030,251.39,825
1031,251.44,812
1032,251.49,796
1033,251.54,864
1034,251.59,751
1035,251.64,687
1036,251.7,725
1037,251.75,771
1038,251.8,835
1039,251.85,718
1040,251.9,906
1041,251.95,751
1042,252.0,842
1043,252.05,596
1044,252.1,878
1045,252.16,780
1046,252.21,758
1047,252.26,690
1048,252.31,791
1049,252.36,784
1050,252.41,885
1051,252.46,780
1052,252.51,688
1053,252.56,672
1054,252.62,815
1055,252.67,667
1056,252.72,961
1057,252.77,845
1058,252.82,959
1059,252.87,858
1060,252.92,946
1061,252.97,925
1062,253.02,1047
1063,253.08,1082
1064,253.13,942
1065,253.18,708
1066,253.23,911
1067,253.28,704
1068,253.33,824
1069,253.38,866
1070,253.43,893
1071,253.48,664
1072,253.54,961
1073,253.59,889
1074,253.64,986
1075,253.69,807
1076,253.74,749
1077,253.79,725
1078,253.84,771
1079,253.89,964
1080,253.94,810
1081,254.0,749
1082,254.05,737
1083,254.1,756
1084,254.15,671
1085,254.2,758
1086,254.25,705
1087,254.3,725
1088,254.35,799
1089,254.4,812
1090,254.45,962
1091,254.51,1019
1092,254.56,975
1093,254.61,1178
1094,254.66,1397
1095,254.71,1150
1096,254.76,1212
1097,254.81,872
1098,254.86,1078
1099,254.91,921
1100,254.96,1130
1101,255.02,1075
1102,255.07,989
1103,255.12,1008
1104,255.17,903
1105,255.22,876
1106,255.27,824
1107,255.32,741
1108,255.37,903
1109,255.42,844
1110,255.47,743
1111,255.52,767
1112,255.58,589
1113,255.63,810
1114,255.68,693
1115,255.73,858
1116,255.78,716
1117,255.83,719
1118,255.88,756
1119,255.93,711
1120,255.98,698
1121,256.03,587
1122,256.08,768
1123,256.14,659
1124,256.19,974
1125,256.24,716
1126,256.29,814
1127,256.34,651
1128,256.39,638
1129,256.44,604
1130,256.49,661
1131,256.54,858
1132,256.59,772
1133,256.64,690
1134,256.7,739
1135,256.75,563
1136,256.8,536
1137,256.85,701
1138,256.9,744
1139,256.95,764
1140,257.0,636
1141,257.05,749
1142,257.1,839
1143,257.15,789
1144,257.2,665
1145,257.26,691
1146,257.31,723
1147,257.36,786
1148,257.41,559
1149,257.46,807
1150,257.51,812
1151,257.56,696
1152,257.61,728
1153,257.66,650
1154,257.71,730
1155,257.76,725
1156,257.81,783
1157,257.87,737
1158,257.92,704
1159,257.97,680
1160,258.02,665
1161,258.07,762
1162,258.12,851
1163,258.17,763
1164,258.22,757
1165,258.27,695
1166,258.32,722
1167,258.37,622
1168,258.42,748
1169,258.47,565
1170,258.53,710
1171,258.58,666
1172,258.63,824
1173,258.68,697
1174,258.73,545
1175,258.78,652
1176,258.83,720
1177,258.88,611
1178,258.93,687
1179,258.98,513
1180,259.03,755
1181,259.08,673
1182,259.13,906
1183,259.19,768
1184,259.24,833
1185,259.29,724
1186,259.34,993
1187,259.39,766
1188,259.44,687
1189,259.49,741
1190,259.54,849
1191,259.59,657
1192,259.64,794
1193,259.69,816
1194,259.74,839
1195,259.79,833
1196,259.84,877
1197,259.9,1038
1198,259.95,803
1199,260.0,1068
1200,260.05,941
1201,260.1,1151
1202,260.15,1054
1203,260.2,948
1204,260.25,1065
1205,260.3,1029
1206,260.35,794
1207,260.4,732
1208,260.45,855
1209,260.5,941
1210,260.55,981
1211,260.6,950
1212,260.66,925
1213,260.71,744
1214,260.76,749
1215,260.81,827
1216,260.86,972
1217,260.91,857
1218,260.96,835
1219,261.01,655
1220,261.06,724
1221,261.11,747
1222,261.16,737
1223,261.21,662
1224,261.26,748
1225,261.31,683
1226,261.36,724
1227,261.41,701
1228,261.46,652
1229,261.52,747
1230,261.57,664
1231,261.62,725
1232,261.67,715
1233,261.72,807
1234,261.77,670
1235,261.82,775
1236,261.87,745
1237,261.92,812
1238,261.97,722
1239,262.02,890
1240,262.07,766
1241,262.12,781
1242,262.17,639
1243,262.22,690
1244,262.27,604
1245,262.32,696
1246,262.38,753
1247,262.43,756
1248,262.48,724
1249,262.53,723
1250,262.58,629
1251,262.63,745
1252,262.68,707
1253,262.73,659
1254,262.78,674
1255,262.83,725
1256,262.88,693
1257,262.93,706
1258,262.98,700
1259,263.03,564
1260,263.08,943
1261,263.13,697
1262,263.18,752
1263,263.23,733
1264,263.28,739
1265,263.33,742
1266,263.39,823
1267,263.44,745
1268,263.49,793
1269,263.54,646
1270,263.59,738
1271,263.64,652
1272,263.69,675
1273,263.74,779
1274,263.79,582
1275,263.84,700
1276,263.89,585
1277,263.94,708
1278,263.99,740
1279,264.04,674
1280,264.09,747
1281,264.14,827
1282,264.19,691
1283,264.24,671
1284,264.29,762
1285,264.34,672
1286,264.39,612
1287,264.44,684
1288,264.5,620
1289,264.55,828
1290,264.6,657
1291,264.65,627
1292,264.7,645
1293,264.75,775
1294,264.8,663
1295,264.85,751
1296,264.9,720
1297,264.95,773
1298,265.0,620
1299,265.05,872
1300,265.1,678
1301,265.15,737
1302,265.2,701
1303,265.25,721
1304,265.3,747
1305,265.35,670
1306,265.4,731
1307,265.45,773
1308,265.5,717
1309,265.55,724
1310,265.6,754
1311,265.65,714
1312,265.7,639
1313,265.75,613
1314,265.8,767
1315,265.86,672
1316,265.91,602
1317,265.96,860
1318,266.01,777
1319,266.06,656
1320,266.11,533
1321,266.16,886
