,Wavelength,Sum,Mean Intensity
0,200.09,12.2,0.2
1,200.14,12.5,0.2
2,200.19,12.8,0.2
3,200.25,13.3,0.2
4,200.30,13.0,0.2
5,200.36,13.0,0.2
6,200.41,13.3,0.2
7,200.47,13.3,0.2
8,200.52,13.1,0.2
9,200.58,13.3,0.2
10,200.63,13.2,0.2
11,200.69,13.3,0.2
12,200.74,13.0,0.2
13,200.80,13.2,0.2
14,200.85,13.7,0.2
15,200.91,13.9,0.2
16,200.96,13.8,0.2
17,201.02,13.9,0.2
18,201.07,13.6,0.2
19,201.13,13.7,0.2
20,201.18,13.9,0.2
21,201.24,13.7,0.2
22,201.29,13.9,0.2
23,201.35,14.0,0.2
24,201.40,14.1,0.2
25,201.46,14.2,0.2
26,201.51,14.4,0.2
27,201.57,14.4,0.2
28,201.62,14.2,0.2
29,201.68,14.3,0.2
30,201.73,14.3,0.2
31,201.79,14.4,0.2
32,201.84,14.4,0.2
33,201.90,14.6,0.2
34,201.95,14.9,0.2
35,202.00,14.8,0.2
36,202.06,14.6,0.2
37,202.11,14.8,0.2
38,202.17,15.1,0.2
39,202.22,15.1,0.2
40,202.28,14.9,0.2
41,202.33,15.0,0.2
42,202.39,15.2,0.2
43,202.44,15.0,0.2
44,202.50,15.3,0.2
45,202.55,15.0,0.2
46,202.61,14.8,0.2
47,202.66,14.5,0.2
48,202.72,14.3,0.2
49,202.77,15.0,0.2
50,202.83,14.9,0.2
51,202.88,14.8,0.2
52,202.94,15.0,0.2
53,202.99,15.3,0.2
54,203.04,15.4,0.2
55,203.10,15.9,0.2
56,203.15,15.5,0.2
57,203.21,15.6,0.2
58,203.26,15.3,0.2
59,203.32,15.0,0.2
60,203.37,15.5,0.2
61,203.43,15.7,0.2
62,203.48,15.5,0.2
63,203.54,15.7,0.2
64,203.59,16.0,0.2
65,203.65,15.6,0.2
66,203.70,15.7,0.2
67,203.76,15.4,0.2
68,203.81,15.5,0.2
69,203.86,15.9,0.2
70,203.92,15.9,0.2
71,203.97,16.1,0.2
72,204.03,16.4,0.2
73,204.08,16.4,0.2
74,204.14,16.8,0.2
75,204.19,16.2,0.2
76,204.25,16.4,0.2
77,204.30,16.1,0.2
78,204.36,16.1,0.2
79,204.41,16.0,0.2
80,204.47,16.0,0.2
81,204.52,16.2,0.2
82,204.57,16.4,0.2
83,204.63,15.9,0.2
84,204.68,16.1,0.2
85,204.74,16.4,0.2
86,204.79,16.2,0.2
87,204.85,16.8,0.2
88,204.90,17.4,0.2
89,204.96,18.0,0.2
90,205.01,18.3,0.3
91,205.07,17.9,0.2
92,205.12,17.5,0.2
93,205.18,17.1,0.2
94,205.23,17.4,0.2
95,205.28,18.1,0.2
96,205.34,18.1,0.2
97,205.39,19.0,0.3
98,205.45,18.6,0.3
99,205.50,18.4,0.3
100,205.56,18.5,0.2
101,205.61,18.7,0.2
102,205.67,19.2,0.3
103,205.72,18.5,0.3
104,205.77,18.3,0.2
105,205.83,18.1,0.2
106,205.88,18.4,0.2
107,205.94,17.9,0.2
108,205.99,17.7,0.2
109,206.05,17.5,0.2
110,206.10,17.3,0.2
111,206.16,17.3,0.2
112,206.21,17.5,0.2
113,206.27,17.1,0.2
114,206.32,17.5,0.2
115,206.37,16.9,0.2
116,206.43,17.2,0.2
117,206.48,17.3,0.2
118,206.54,17.7,0.2
119,206.59,18.4,0.2
120,206.65,18.1,0.2
121,206.70,18.7,0.3
122,206.76,18.5,0.3
123,206.81,17.5,0.2
124,206.86,18.0,0.2
125,206.92,17.9,0.2
126,206.97,17.6,0.2
127,207.03,17.7,0.2
128,207.08,17.6,0.2
129,207.14,17.3,0.2
130,207.19,17.1,0.2
131,207.24,17.3,0.2
132,207.30,16.9,0.2
133,207.35,16.9,0.2
134,207.41,16.6,0.2
135,207.46,16.7,0.2
136,207.52,17.0,0.2
137,207.57,16.4,0.2
138,207.63,16.6,0.2
139,207.68,16.6,0.2
140,207.73,17.0,0.2
141,207.79,17.2,0.2
142,207.84,17.1,0.3
143,207.90,16.6,0.3
144,207.95,16.7,0.2
145,208.01,16.5,0.2
146,208.06,17.3,0.2
147,208.11,16.9,0.2
148,208.17,16.8,0.2
149,208.22,17.0,0.2
150,208.28,16.8,0.2
151,208.33,16.9,0.2
152,208.39,17.1,0.2
153,208.44,17.1,0.2
154,208.49,16.6,0.2
155,208.55,16.6,0.2
156,208.60,16.6,0.2
157,208.66,16.9,0.2
158,208.71,16.9,0.2
159,208.77,16.8,0.2
160,208.82,16.8,0.2
161,208.87,16.8,0.2
162,208.93,17.2,0.2
163,208.98,17.1,0.2
164,209.04,17.1,0.2
165,209.09,17.3,0.2
166,209.15,17.1,0.3
167,209.20,17.0,0.2
168,209.25,17.0,0.2
169,209.31,17.5,0.2
170,209.36,17.7,0.2
171,209.42,17.4,0.2
172,209.47,17.4,0.2
173,209.53,17.3,0.2
174,209.58,17.3,0.2
175,209.63,18.4,0.2
176,209.69,19.3,0.3
177,209.74,19.7,0.3
178,209.80,20.4,0.3
179,209.85,19.7,0.3
180,209.91,18.8,0.2
181,209.96,19.0,0.3
182,210.01,19.4,0.3
183,210.07,19.9,0.3
184,210.12,19.8,0.3
185,210.18,19.7,0.3
186,210.23,19.5,0.3
187,210.28,20.1,0.2
188,210.34,20.1,0.2
189,210.39,19.9,0.3
190,210.45,19.3,0.3
191,210.50,19.6,0.3
192,210.56,18.7,0.3
193,210.61,18.4,0.2
194,210.66,18.8,0.2
195,210.72,18.1,0.2
196,210.77,18.2,0.2
197,210.83,18.1,0.2
198,210.88,18.2,0.2
199,210.93,18.2,0.2
200,210.99,17.9,0.2
201,211.04,18.1,0.2
202,211.10,17.9,0.3
203,211.15,17.4,0.2
204,211.20,17.8,0.2
205,211.26,17.7,0.2
206,211.31,17.3,0.2
207,211.37,17.6,0.2
208,211.42,17.5,0.2
209,211.47,17.6,0.2
210,211.53,18.1,0.2
211,211.58,17.8,0.2
212,211.64,18.1,0.3
213,211.69,17.9,0.2
214,211.75,17.5,0.2
215,211.80,17.4,0.2
216,211.85,17.7,0.2
217,211.91,17.7,0.2
218,211.96,17.5,0.2
219,212.02,17.2,0.2
220,212.07,17.3,0.2
221,212.12,17.5,0.2
222,212.18,17.8,0.2
223,212.23,17.4,0.2
224,212.29,17.8,0.2
225,212.34,17.8,0.2
226,212.39,17.5,0.2
227,212.45,17.6,0.2
228,212.50,17.6,0.3
229,212.56,17.9,0.2
230,212.61,17.8,0.2
231,212.66,17.6,0.2
232,212.72,17.5,0.2
233,212.77,17.3,0.3
234,212.83,17.7,0.3
235,212.88,17.9,0.3
236,212.93,17.5,0.2
237,212.99,17.6,0.2
238,213.04,18.4,0.2
239,213.10,18.6,0.3
240,213.15,18.6,0.2
241,213.20,18.4,0.2
242,213.26,18.1,0.2
243,213.31,18.3,0.2
244,213.36,18.7,0.2
245,213.42,18.9,0.2
246,213.47,19.3,0.2
247,213.53,19.1,0.3
248,213.58,18.9,0.3
249,213.63,19.0,0.3
250,213.69,18.7,0.2
251,213.74,19.4,0.3
252,213.80,20.3,0.3
253,213.85,20.5,0.3
254,213.90,19.3,0.3
255,213.96,18.8,0.2
256,214.01,18.5,0.3
257,214.07,18.3,0.2
258,214.12,18.3,0.3
259,214.17,18.3,0.2
260,214.23,18.2,0.2
261,214.28,18.3,0.3
262,214.34,18.5,0.3
263,214.39,18.8,0.2
264,214.44,18.5,0.2
265,214.50,17.9,0.2
266,214.55,18.3,0.2
267,214.60,18.1,0.3
268,214.66,18.4,0.3
269,214.71,17.8,0.2
270,214.77,18.0,0.2
271,214.82,18.5,0.2
272,214.87,18.4,0.2
273,214.93,18.0,0.3
274,214.98,18.5,0.2
275,215.03,18.3,0.2
276,215.09,18.4,0.3
277,215.14,18.5,0.2
278,215.20,19.2,0.3
279,215.25,19.9,0.3
280,215.30,20.2,0.3
281,215.36,22.2,0.3
282,215.41,24.8,0.4
283,215.47,28.5,0.4
284,215.52,28.5,0.5
285,215.57,26.6,0.4
286,215.63,25.2,0.4
287,215.68,24.4,0.3
288,215.73,25.1,0.4
289,215.79,28.2,0.4
290,215.84,33.5,0.6
291,215.90,35.0,0.6
292,215.95,33.0,0.6
293,216.00,28.6,0.5
294,216.06,25.3,0.3
295,216.11,24.5,0.4
296,216.16,25.1,0.3
297,216.22,26.3,0.4
298,216.27,26.9,0.4
299,216.33,25.3,0.3
300,216.38,22.2,0.3
301,216.43,21.0,0.3
302,216.49,21.3,0.3
303,216.54,21.2,0.3
304,216.59,20.8,0.3
305,216.65,21.6,0.3
306,216.70,21.0,0.3
307,216.75,20.9,0.3
308,216.81,20.5,0.3
309,216.86,20.9,0.3
310,216.92,20.7,0.3
311,216.97,20.6,0.3
312,217.02,20.5,0.3
313,217.08,20.4,0.3
314,217.13,20.7,0.3
315,217.18,20.7,0.3
316,217.24,20.9,0.3
317,217.29,21.2,0.3
318,217.34,21.6,0.3
319,217.40,21.3,0.3
320,217.45,21.2,0.2
321,217.51,21.0,0.3
322,217.56,21.6,0.3
323,217.61,21.6,0.3
324,217.67,21.4,0.3
325,217.72,22.7,0.3
326,217.77,23.4,0.3
327,217.83,23.4,0.3
328,217.88,23.1,0.3
329,217.93,22.6,0.4
330,217.99,22.5,0.3
331,218.04,22.5,0.3
332,218.10,22.7,0.3
333,218.15,21.9,0.3
334,218.20,21.5,0.3
335,218.26,22.9,0.2
336,218.31,22.1,0.3
337,218.36,21.9,0.3
338,218.42,23.2,0.3
339,218.47,23.1,0.3
340,218.52,23.9,0.4
341,218.58,25.7,0.4
342,218.63,28.0,0.4
343,218.68,30.2,0.5
344,218.74,31.1,0.5
345,218.79,30.3,0.5
346,218.85,28.6,0.4
347,218.90,27.2,0.4
348,218.95,27.9,0.4
349,219.01,29.2,0.5
350,219.06,27.5,0.4
351,219.11,25.2,0.4
352,219.17,23.6,0.3
353,219.22,22.4,0.3
354,219.27,22.3,0.3
355,219.33,22.0,0.3
356,219.38,21.7,0.3
357,219.43,21.1,0.3
358,219.49,20.8,0.3
359,219.54,21.2,0.3
360,219.59,21.7,0.3
361,219.65,22.0,0.3
362,219.70,21.8,0.3
363,219.75,21.5,0.3
364,219.81,21.9,0.3
365,219.86,23.3,0.3
366,219.91,24.3,0.3
367,219.97,24.0,0.4
368,220.02,23.5,0.4
369,220.07,23.5,0.4
370,220.13,23.9,0.4
371,220.18,23.8,0.3
372,220.24,22.5,0.3
373,220.29,22.7,0.3
374,220.34,22.3,0.3
375,220.40,22.4,0.3
376,220.45,22.5,0.3
377,220.50,22.6,0.3
378,220.56,21.8,0.3
379,220.61,22.1,0.3
380,220.66,21.9,0.3
381,220.72,20.9,0.3
382,220.77,21.2,0.3
383,220.82,21.2,0.3
384,220.88,21.0,0.3
385,220.93,22.1,0.3
386,220.98,22.1,0.3
387,221.04,22.0,0.3
388,221.09,21.7,0.3
389,221.14,22.3,0.3
390,221.20,22.1,0.3
391,221.25,21.8,0.3
392,221.30,21.2,0.3
393,221.36,20.8,0.3
394,221.41,20.9,0.3
395,221.46,20.6,0.3
396,221.52,21.3,0.2
397,221.57,21.2,0.3
398,221.62,21.4,0.3
399,221.68,21.0,0.3
400,221.73,21.1,0.3
401,221.78,20.8,0.3
402,221.84,20.5,0.3
403,221.89,20.5,0.3
404,221.94,20.8,0.3
405,222.00,21.3,0.3
406,222.05,21.6,0.3
407,222.10,21.6,0.3
408,222.16,21.6,0.3
409,222.21,21.8,0.3
410,222.26,21.8,0.3
411,222.32,22.0,0.3
412,222.37,22.1,0.3
413,222.42,23.0,0.3
414,222.47,23.2,0.3
415,222.53,25.0,0.4
416,222.58,28.6,0.4
417,222.63,34.2,0.5
418,222.69,39.2,0.7
419,222.74,40.7,0.7
420,222.79,35.4,0.6
421,222.85,33.2,0.6
422,222.90,34.3,0.6
423,222.95,36.1,0.6
424,223.01,42.0,0.7
425,223.06,46.8,0.9
426,223.11,46.7,0.9
427,223.17,37.9,0.6
428,223.22,29.8,0.5
429,223.27,26.0,0.4
430,223.33,24.8,0.4
431,223.38,25.2,0.4
432,223.43,24.3,0.3
433,223.49,25.2,0.3
434,223.54,25.0,0.4
435,223.59,25.2,0.4
436,223.65,26.4,0.4
437,223.70,28.0,0.4
438,223.75,29.5,0.5
439,223.80,30.1,0.5
440,223.86,30.0,0.5
441,223.91,29.0,0.5
442,223.96,29.6,0.5
443,224.02,28.2,0.4
444,224.07,26.5,0.4
445,224.12,26.4,0.4
446,224.18,26.1,0.4
447,224.23,26.7,0.4
448,224.28,26.1,0.4
449,224.34,25.5,0.4
450,224.39,25.4,0.4
451,224.44,26.3,0.4
452,224.50,25.5,0.4
453,224.55,25.7,0.4
454,224.60,25.5,0.4
455,224.65,26.9,0.4
456,224.71,27.2,0.4
457,224.76,28.1,0.4
458,224.81,29.5,0.5
459,224.87,33.2,0.6
460,224.92,38.2,0.7
461,224.97,41.0,0.8
462,225.03,41.1,0.8
463,225.08,36.9,0.7
464,225.13,33.6,0.6
465,225.19,32.4,0.6
466,225.24,36.0,0.7
467,225.29,40.6,0.8
468,225.34,38.4,0.7
469,225.40,33.4,0.6
470,225.45,29.7,0.5
471,225.50,28.4,0.5
472,225.56,27.1,0.4
473,225.61,27.4,0.5
474,225.66,28.0,0.5
475,225.72,27.3,0.4
476,225.77,27.6,0.4
477,225.82,27.6,0.4
478,225.87,29.7,0.4
479,225.93,32.4,0.5
480,225.98,41.1,0.8
481,226.03,53.7,1.1
482,226.09,68.2,1.5
483,226.14,67.1,1.5
484,226.19,50.2,1.0
485,226.25,38.7,0.7
486,226.30,33.7,0.6
487,226.35,31.8,0.5
488,226.40,30.7,0.5
489,226.46,30.1,0.5
490,226.51,28.3,0.4
491,226.56,28.2,0.5
492,226.62,29.8,0.5
493,226.67,29.7,0.5
494,226.72,31.9,0.6
495,226.77,38.7,0.7
496,226.83,51.3,1.1
497,226.88,70.2,1.6
498,226.93,66.9,1.4
499,226.99,50.6,1.0
500,227.04,37.5,0.6
501,227.09,32.4,0.5
502,227.14,29.6,0.5
503,227.20,30.4,0.5
504,227.25,31.1,0.5
505,227.30,30.2,0.5
506,227.36,29.5,0.5
507,227.41,28.2,0.4
508,227.46,27.9,0.4
509,227.51,28.4,0.4
510,227.57,27.0,0.4
511,227.62,27.9,0.4
512,227.67,28.1,0.4
513,227.73,27.6,0.4
514,227.78,26.7,0.4
515,227.83,27.5,0.4
516,227.88,26.7,0.4
517,227.94,28.5,0.4
518,227.99,29.8,0.5
519,228.04,29.8,0.5
520,228.10,29.2,0.5
521,228.15,28.8,0.4
522,228.20,27.2,0.4
523,228.25,26.7,0.4
524,228.31,27.0,0.4
525,228.36,27.2,0.4
526,228.41,27.9,0.4
527,228.47,29.3,0.5
528,228.52,29.6,0.5
529,228.57,32.3,0.5
530,228.62,32.2,0.5
531,228.68,31.5,0.5
532,228.73,30.2,0.5
533,228.78,30.1,0.5
534,228.84,29.2,0.5
535,228.89,29.2,0.5
536,228.94,29.3,0.4
537,228.99,29.6,0.5
538,229.05,29.3,0.4
539,229.10,30.9,0.5
540,229.15,33.9,0.6
541,229.20,33.8,0.6
542,229.26,31.9,0.5
543,229.31,32.2,0.5
544,229.36,32.3,0.5
545,229.42,34.6,0.6
546,229.47,36.2,0.6
547,229.52,35.3,0.6
548,229.57,35.0,0.6
549,229.63,33.1,0.6
550,229.68,31.4,0.5
551,229.73,31.6,0.5
552,229.78,32.9,0.5
553,229.84,34.3,0.6
554,229.89,35.3,0.6
555,229.94,36.4,0.6
556,229.99,35.0,0.6
557,230.05,34.8,0.6
558,230.10,34.1,0.6
559,230.15,33.6,0.6
560,230.21,34.2,0.6
561,230.26,36.0,0.6
562,230.31,34.4,0.6
563,230.36,33.8,0.6
564,230.42,33.4,0.6
565,230.47,33.6,0.5
566,230.52,34.5,0.5
567,230.57,32.9,0.5
568,230.63,32.9,0.5
569,230.68,32.5,0.5
570,230.73,31.3,0.5
571,230.78,30.9,0.5
572,230.84,31.4,0.5
573,230.89,32.4,0.5
574,230.94,32.0,0.5
575,230.99,32.7,0.6
576,231.05,34.1,0.6
577,231.10,33.9,0.6
578,231.15,32.8,0.6
579,231.21,33.8,0.6
580,231.26,34.4,0.6
581,231.31,33.6,0.6
582,231.36,33.8,0.6
583,231.42,35.5,0.6
584,231.47,35.6,0.6
585,231.52,37.8,0.7
586,231.57,35.3,0.6
587,231.63,33.5,0.6
588,231.68,36.0,0.6
589,231.73,35.8,0.6
590,231.78,36.1,0.6
591,231.84,35.8,0.6
592,231.89,34.8,0.6
593,231.94,35.3,0.6
594,231.99,34.9,0.6
595,232.05,37.6,0.7
596,232.10,39.0,0.7
597,232.15,37.2,0.7
598,232.20,37.8,0.7
599,232.26,38.0,0.7
600,232.31,38.2,0.7
601,232.36,39.9,0.7
602,232.41,39.8,0.7
603,232.47,40.0,0.7
604,232.52,42.0,0.7
605,232.57,43.2,0.8
606,232.62,47.1,0.9
607,232.68,47.3,1.0
608,232.73,47.3,0.9
609,232.78,48.8,0.9
610,232.83,50.7,1.0
611,232.89,52.5,1.0
612,232.94,57.3,1.2
613,232.99,67.0,1.4
614,233.04,87.2,2.0
615,233.10,102.3,2.7
616,233.15,111.0,3.0
617,233.20,92.8,2.2
618,233.25,82.3,1.8
619,233.31,83.0,1.9
620,233.36,94.6,2.2
621,233.41,110.7,2.8
622,233.46,100.5,2.4
623,233.51,79.2,1.7
624,233.57,74.1,1.6
625,233.62,73.4,1.6
626,233.67,77.2,1.7
627,233.72,85.3,1.9
628,233.78,101.4,2.4
629,233.83,115.2,3.0
630,233.88,123.8,3.3
631,233.93,111.0,2.7
632,233.99,87.5,2.0
633,234.04,88.0,2.0
634,234.09,94.5,2.2
635,234.14,102.1,2.3
636,234.20,100.5,2.3
637,234.25,90.6,2.0
638,234.30,75.7,1.6
639,234.35,69.9,1.4
640,234.40,69.8,1.5
641,234.46,83.1,1.8
642,234.51,104.3,2.4
643,234.56,123.3,3.1
644,234.61,159.3,4.2
645,234.67,182.0,5.0
646,234.72,142.9,3.8
647,234.77,108.2,2.6
648,234.82,89.0,2.1
649,234.88,84.8,1.9
650,234.93,82.4,1.8
651,234.98,87.0,2.0
652,235.03,81.9,1.8
653,235.08,69.7,1.5
654,235.14,59.3,1.2
655,235.19,55.8,1.1
656,235.24,56.5,1.1
657,235.29,58.4,1.2
658,235.35,64.9,1.4
659,235.40,72.7,1.6
660,235.45,70.7,1.5
661,235.50,62.4,1.3
662,235.56,54.6,1.1
663,235.61,54.1,1.0
664,235.66,53.2,1.1
665,235.71,57.0,1.2
666,235.76,57.8,1.1
667,235.82,53.9,1.1
668,235.87,50.1,1.0
669,235.92,50.2,1.0
670,235.97,49.8,1.0
671,236.03,50.0,1.0
672,236.08,47.9,0.9
673,236.13,52.5,1.0
674,236.18,54.4,1.1
675,236.23,54.1,1.1
676,236.29,55.7,1.1
677,236.34,53.1,1.0
678,236.39,53.6,1.1
679,236.44,51.3,1.0
680,236.49,50.9,1.0
681,236.55,51.3,1.0
682,236.60,52.7,1.0
683,236.65,53.5,1.1
684,236.70,51.7,1.0
685,236.76,55.5,1.1
686,236.81,60.2,1.3
687,236.86,61.7,1.3
688,236.91,62.1,1.3
689,236.96,62.2,1.3
690,237.02,65.0,1.4
691,237.07,69.7,1.5
692,237.12,70.8,1.5
693,237.17,75.8,1.6
694,237.22,78.2,1.7
695,237.28,84.9,1.9
696,237.33,100.0,2.3
697,237.38,121.3,3.0
698,237.43,143.3,3.9
699,237.49,162.2,4.6
700,237.54,134.2,3.4
701,237.59,106.2,2.5
702,237.64,87.8,2.0
703,237.69,80.1,1.7
704,237.75,72.9,1.5
705,237.80,70.7,1.5
706,237.85,69.9,1.5
707,237.90,65.0,1.3
708,237.95,60.9,1.2
709,238.01,58.8,1.2
710,238.06,59.7,1.2
711,238.11,53.6,1.0
712,238.16,54.2,1.1
713,238.21,55.5,1.1
714,238.27,53.7,1.1
715,238.32,53.1,1.0
716,238.37,53.7,1.0
717,238.42,55.6,1.1
718,238.47,54.8,1.1
719,238.53,53.2,1.0
720,238.58,51.5,1.0
721,238.63,49.7,0.9
722,238.68,49.6,1.0
723,238.73,52.9,1.0
724,238.79,53.5,1.0
725,238.84,48.9,0.9
726,238.89,50.9,0.9
727,238.94,51.0,1.0
728,238.99,55.1,1.1
729,239.05,52.6,1.0
730,239.10,50.5,1.0
731,239.15,50.9,0.9
732,239.20,49.1,0.9
733,239.25,49.4,0.9
734,239.31,49.9,0.9
735,239.36,49.6,1.0
736,239.41,50.5,1.0
737,239.46,51.0,1.0
738,239.51,50.2,0.9
739,239.57,50.4,1.0
740,239.62,53.4,1.0
741,239.67,54.0,1.1
742,239.72,52.4,1.0
743,239.77,52.3,1.0
744,239.83,55.3,1.1
745,239.88,54.9,1.1
746,239.93,55.8,1.1
747,239.98,55.6,1.1
748,240.03,60.4,1.2
749,240.08,61.5,1.2
750,240.14,64.4,1.3
751,240.19,70.0,1.5
752,240.24,66.9,1.4
753,240.29,58.1,1.1
754,240.34,57.6,1.1
755,240.40,59.3,1.2
756,240.45,58.1,1.1
757,240.50,60.0,1.2
758,240.55,61.6,1.3
759,240.60,65.6,1.3
760,240.66,67.3,1.4
761,240.71,67.3,1.4
762,240.76,68.5,1.4
763,240.81,72.1,1.5
764,240.86,76.6,1.6
765,240.91,81.7,1.7
766,240.97,91.7,2.0
767,241.02,104.6,2.3
768,241.07,112.7,2.6
769,241.12,116.0,2.7
770,241.17,116.7,2.7
771,241.23,157.6,3.9
772,241.28,198.3,5.1
773,241.33,243.5,6.7
774,241.38,267.5,7.6
775,241.43,216.9,5.9
776,241.48,160.3,4.0
777,241.54,141.5,3.4
778,241.59,120.6,2.8
779,241.64,107.8,2.4
780,241.69,100.8,2.2
781,241.74,96.2,2.1
782,241.80,85.4,1.9
783,241.85,81.9,1.8
784,241.90,75.4,1.6
785,241.95,72.3,1.5
786,242.00,72.8,1.5
787,242.05,64.8,1.3
788,242.11,65.7,1.3
789,242.16,64.9,1.3
790,242.21,62.7,1.2
791,242.26,67.5,1.4
792,242.31,69.5,1.5
793,242.36,71.9,1.5
794,242.42,70.1,1.4
795,242.47,61.5,1.2
796,242.52,59.5,1.2
797,242.57,56.9,1.1
798,242.62,57.9,1.1
799,242.67,58.4,1.1
800,242.73,60.0,1.2
801,242.78,57.7,1.1
802,242.83,56.7,1.1
803,242.88,56.3,1.1
804,242.93,53.8,1.0
805,242.98,54.7,1.0
806,243.04,55.2,1.1
807,243.09,55.3,1.1
808,243.14,55.7,1.0
809,243.19,55.3,1.1
810,243.24,57.6,1.2
811,243.29,57.6,1.2
812,243.35,59.5,1.2
813,243.40,59.3,1.2
814,243.45,57.5,1.1
815,243.50,57.1,1.1
816,243.55,55.7,1.1
817,243.60,52.8,1.0
818,243.66,53.4,1.1
819,243.71,55.3,1.1
820,243.76,52.3,1.0
821,243.81,56.7,1.1
822,243.86,63.6,1.3
823,243.91,78.2,1.7
824,243.97,102.7,2.4
825,244.02,105.8,2.4
826,244.07,82.2,1.7
827,244.12,68.4,1.4
828,244.17,60.8,1.2
829,244.22,65.1,1.3
830,244.27,64.0,1.3
831,244.33,58.0,1.2
832,244.38,54.8,1.0
833,244.43,56.5,1.1
834,244.48,60.7,1.2
835,244.53,54.6,1.1
836,244.58,56.4,1.1
837,244.64,58.6,1.2
838,244.69,60.1,1.2
839,244.74,64.6,1.3
840,244.79,68.0,1.4
841,244.84,68.3,1.4
842,244.89,74.0,1.5
843,244.94,97.6,2.3
844,245.00,132.2,3.2
845,245.05,130.0,3.2
846,245.10,86.3,1.9
847,245.15,71.8,1.5
848,245.20,65.4,1.3
849,245.25,60.6,1.2
850,245.31,60.2,1.2
851,245.36,61.3,1.2
852,245.41,55.6,1.1
853,245.46,53.5,1.0
854,245.51,54.8,1.1
855,245.56,57.1,1.1
856,245.61,57.0,1.1
857,245.67,57.8,1.1
858,245.72,59.8,1.2
859,245.77,56.8,1.1
860,245.82,58.0,1.1
861,245.87,56.7,1.1
862,245.92,55.9,1.1
863,245.97,59.2,1.2
864,246.03,63.4,1.3
865,246.08,64.0,1.3
866,246.13,61.8,1.3
867,246.18,62.5,1.3
868,246.23,61.8,1.2
869,246.28,58.1,1.2
870,246.33,59.5,1.2
871,246.39,59.3,1.2
872,246.44,60.7,1.2
873,246.49,59.4,1.2
874,246.54,57.5,1.1
875,246.59,58.2,1.1
876,246.64,54.2,1.1
877,246.69,56.0,1.1
878,246.74,58.2,1.1
879,246.80,60.3,1.2
880,246.85,62.8,1.3
881,246.90,58.1,1.1
882,246.95,59.1,1.2
883,247.00,60.0,1.2
884,247.05,60.3,1.2
885,247.10,54.6,1.1
886,247.16,60.9,1.2
887,247.21,56.8,1.1
888,247.26,57.5,1.1
889,247.31,62.5,1.3
890,247.36,65.5,1.3
891,247.41,64.8,1.3
892,247.46,59.3,1.2
893,247.51,61.0,1.2
894,247.57,61.7,1.2
895,247.62,66.4,1.4
896,247.67,69.9,1.5
897,247.72,68.9,1.4
898,247.77,69.3,1.5
899,247.82,68.7,1.5
900,247.87,69.2,1.4
901,247.93,68.3,1.4
902,247.98,67.1,1.4
903,248.03,66.5,1.4
904,248.08,66.6,1.4
905,248.13,69.8,1.4
906,248.18,64.9,1.3
907,248.23,64.8,1.3
908,248.28,62.7,1.3
909,248.34,64.4,1.3
910,248.39,62.3,1.3
911,248.44,64.8,1.3
912,248.49,57.7,1.2
913,248.54,59.7,1.2
914,248.59,62.8,1.2
915,248.64,62.9,1.3
916,248.69,64.5,1.3
917,248.75,63.9,1.3
918,248.80,61.0,1.2
919,248.85,69.9,1.4
920,248.90,65.2,1.3
921,248.95,67.8,1.4
922,249.00,70.3,1.5
923,249.05,68.4,1.4
924,249.10,68.5,1.4
925,249.15,67.7,1.4
926,249.21,71.5,1.5
927,249.26,69.1,1.4
928,249.31,70.1,1.4
929,249.36,69.2,1.4
930,249.41,69.9,1.4
931,249.46,75.4,1.5
932,249.51,66.9,1.3
933,249.56,68.7,1.5
934,249.62,71.4,1.5
935,249.67,75.9,1.6
936,249.72,72.3,1.5
937,249.77,79.4,1.7
938,249.82,85.6,1.9
939,249.87,82.0,1.8
940,249.92,79.5,1.7
941,249.97,75.6,1.6
942,250.02,75.7,1.6
943,250.08,79.2,1.7
944,250.13,79.9,1.7
945,250.18,83.0,1.8
946,250.23,77.7,1.7
947,250.28,74.9,1.6
948,250.33,80.6,1.7
949,250.38,77.5,1.6
950,250.43,78.9,1.7
951,250.48,79.1,1.7
952,250.54,79.9,1.7
953,250.59,82.4,1.7
954,250.64,83.0,1.8
955,250.69,80.3,1.7
956,250.74,91.0,1.9
957,250.79,90.3,1.9
958,250.84,91.6,2.0
959,250.89,98.0,2.1
960,250.94,103.1,2.2
961,250.99,99.1,2.1
962,251.05,116.3,2.6
963,251.10,119.7,2.7
964,251.15,125.3,2.8
965,251.20,133.9,3.1
966,251.25,145.5,3.4
967,251.30,166.3,3.9
968,251.35,178.9,4.3
969,251.40,216.6,5.4
970,251.45,275.1,7.1
971,251.50,348.0,9.5
972,251.56,382.2,10.9
973,251.61,369.5,10.3
974,251.66,330.1,8.8
975,251.71,271.1,7.0
976,251.76,237.4,5.9
977,251.81,193.1,4.6
978,251.86,175.5,4.1
979,251.91,151.5,3.5
980,251.96,138.0,3.2
981,252.01,130.2,3.0
982,252.07,127.0,2.9
983,252.12,122.0,2.7
984,252.17,128.9,2.9
985,252.22,118.8,2.7
986,252.27,139.9,3.2
987,252.32,164.6,3.9
988,252.37,220.7,5.4
989,252.42,257.5,6.4
990,252.47,334.3,8.4
991,252.52,384.7,9.8
992,252.57,365.9,9.3
993,252.63,347.8,8.9
994,252.68,355.3,9.6
995,252.73,405.4,11.4
996,252.78,385.4,10.7
997,252.83,317.9,8.5
998,252.88,264.7,6.7
