,Wavelength,Sum,B I (2.9e-01),B II (7.1e-01),B III (9.5e-07)
0,200.11,0.0002768,0,0.0002768,0
1,200.16,0.0008773999999999999,0,0.0008773999999999999,0
2,200.21,0.002459,0,0.002459,0
3,200.26,0.00609,0,0.00609,0
4,200.31,0.013330000000000002,0,0.013330000000000002,0
5,200.36,0.0258,0,0.0258,0
6,200.41,0.04414,0,0.04414,0
7,200.46,0.06676,0,0.06676,0
8,200.51,0.08924,0,0.08924,0
9,200.56,0.1054,0,0.1054,0
10,200.61,0.1101,0,0.1101,0
11,200.66,0.1017,0,0.1017,0
12,200.72,0.07855,0,0.07855,0
13,200.77,0.0553,0,0.0553,0
14,200.82,0.03442,0,0.03442,0
15,200.87,0.018930000000000002,0,0.018930000000000002,0
16,200.92,0.009208,0,0.009208,0
17,200.97,0.003959000000000001,0,0.003959000000000001,0
18,201.02,0.001504,0,0.001504,0
19,201.07,0.0005053999999999999,0,0.0005053999999999999,0
20,201.12,0.0001501,0,0.0001501,0
21,201.17,3.94e-05,0,3.94e-05,0
22,201.22,9.142e-06,0,9.142e-06,0
23,201.27,1.875e-06,0,1.875e-06,0
24,201.32,3.4e-07,0,3.4e-07,0
25,201.37,5.449e-08,0,5.449e-08,0
26,201.42,7.719e-09,0,7.719e-09,0
27,201.47,9.665e-10,0,9.665e-10,0
28,201.52,1.0699999999999999e-10,0,1.0699999999999999e-10,0
29,201.57,1.046e-11,0,1.046e-11,0
30,201.62,9.046e-13,0,9.046e-13,0
31,201.67,6.912999999999999e-14,0,6.912999999999999e-14,0
32,201.72,4.669e-15,0,4.669e-15,0
33,201.77,2.7869999999999997e-16,0,2.7869999999999997e-16,0
34,201.82,1.842e-17,0,1.842e-17,0
35,201.87,6.813e-17,0,6.813e-17,0
36,201.92,1.106e-15,0,1.106e-15,0
37,201.97,1.592e-14,0,1.592e-14,0
38,202.02,2.029e-13,0,2.029e-13,0
39,202.07,2.291e-12,0,2.291e-12,0
40,202.12,2.291e-11,0,2.291e-11,0
41,202.17,2.0309999999999998e-10,0,2.0309999999999998e-10,0
42,202.22,1.5939999999999999e-09,0,1.5939999999999999e-09,0
43,202.27,1.109e-08,0,1.109e-08,0
44,202.32,6.832e-08,0,6.832e-08,0
45,202.37,3.729e-07,0,3.729e-07,0
46,202.42,1.8030000000000001e-06,0,1.8030000000000001e-06,0
47,202.47,7.726e-06,0,7.726e-06,0
48,202.52,2.933e-05,0,2.933e-05,0
49,202.57,9.86e-05,0,9.86e-05,0
50,202.62,0.0002937,0,0.0002937,0
51,202.67,0.0007751,0,0.0007751,0
52,202.72,0.001812,0,0.001812,0
53,202.77,0.0037530000000000003,0,0.0037530000000000003,0
54,202.82,0.006887000000000001,0,0.006887000000000001,0
55,202.87,0.0112,0,0.0112,0
56,202.92,0.01612,0,0.01612,0
57,202.97,0.020569999999999998,0,0.020569999999999998,0
58,203.02,0.02325,0,0.02325,0
59,203.07,0.023280000000000002,0,0.023280000000000002,0
60,203.12,0.02065,0,0.02065,0
61,203.17,0.01623,0,0.01623,0
62,203.22,0.0113,0,0.0113,0
63,203.27,0.006971,0,0.006971,0
64,203.32,0.0038090000000000003,0,0.0038090000000000003,0
65,203.37,0.0018449999999999999,0,0.0018449999999999999,0
66,203.42,0.0007957999999999999,0,0.0007957999999999999,0
67,203.47,0.0003184,0,0.0003184,0
68,203.52,0.00015859999999999998,0,0.00015859999999999998,0
69,203.57,0.00019350000000000001,0,0.00019350000000000001,0
70,203.62,0.00042,0,0.00042,0
71,203.67,0.0009235,0,0.0009235,0
72,203.72,0.001829,0,0.001829,0
73,203.77,0.0032159999999999997,0,0.0032159999999999997,0
74,203.82,0.005016,0,0.005016,0
75,203.87,0.006939,0,0.006939,0
76,203.92,0.008512,0,0.008512,0
77,203.97,0.009259,0,0.009259,0
78,204.02,0.008931,0,0.008931,0
79,204.07,0.007639,0,0.007639,0
80,204.12,0.005795000000000001,0,0.005795000000000001,0
81,204.17,0.0038979999999999996,0,0.0038979999999999996,0
82,204.22,0.002325,0,0.002325,0
83,204.27,0.00123,0,0.00123,0
84,204.32,0.0005767999999999999,0,0.0005767999999999999,0
85,204.37,0.0002399,0,0.0002399,0
86,204.42,8.849e-05,0,8.849e-05,0
87,204.47,2.895e-05,0,2.895e-05,0
88,204.52,8.396e-06,0,8.396e-06,0
89,204.57,2.159e-06,0,2.159e-06,0
90,204.62,4.925e-07,0,4.925e-07,0
91,204.67,9.962e-08,0,9.962e-08,0
92,204.72,1.787e-08,0,1.787e-08,0
93,204.77,2.842e-09,0,2.842e-09,0
94,204.82,4.0080000000000005e-10,0,4.0080000000000005e-10,0
95,204.87,5.014e-11,0,5.014e-11,0
96,204.92,5.561e-12,0,5.561e-12,0
97,204.97,5.469e-13,0,5.469e-13,0
98,205.02,4.77e-14,0,4.77e-14,0
99,205.07,3.689e-15,0,3.689e-15,0
100,205.12,2.5299999999999997e-16,0,2.5299999999999997e-16,0
101,205.17,1.5390000000000002e-17,0,1.5390000000000002e-17,0
102,205.22,8.3e-19,0,8.3e-19,0
103,205.32,1.683e-16,0,0,1.683e-16
104,205.37,1.411e-13,1.38e-13,0,3.0399999999999997e-15
105,205.42,4.887e-12,4.838e-12,0,4.885e-14
106,205.47,8.395999999999999e-11,8.326e-11,0,6.983e-13
107,205.52,1.259e-09,1.251e-09,0,8.877000000000001e-12
108,205.57,1.683e-08,1.672e-08,0,1.004e-10
109,205.62,2.002e-07,1.992e-07,0,1.01e-09
110,205.67,2.1219999999999998e-06,2.113e-06,0,9.031e-09
111,205.72,2.003e-05,1.996e-05,0,7.187000000000001e-08
112,205.77,0.0001685,0.000168,0,5.088e-07
113,205.82,0.0012619999999999999,0.001259,0,3.2039999999999997e-06
114,205.87,0.008427,0.008409,0,1.795e-05
115,205.92,0.05013,0.05004,0,8.947e-05
116,205.97,0.2657,0.2653,0,0.0003968
117,206.02,1.255,1.254,0,0.001567
118,206.07,5.2860000000000005,5.281000000000001,0,0.0055049999999999995
119,206.12,19.85,19.83,0,0.017230000000000002
120,206.17,66.44,66.39,0,0.04803
121,206.22,198.3,198.2,0,0.1194
122,206.27,528.2,527.9,0,0.2646
123,206.32,1255.0,1254.0,0,0.524
124,206.37,2661.0,2660.0,0,0.928
125,206.42,5035.0,5033.0,0,1.473
126,206.47,8506.0,8504.0,0,2.099
127,206.52,12830.0,12830.0,0,2.694
128,206.57,17290.0,17290.0,0,3.123
129,206.62,20810.0,20810.0,0,3.283
130,206.67,22390.0,22380.0,0,3.138
131,206.72,21520.0,21510.0,0,2.735
132,206.77,18490.0,18480.0,0,2.177
133,206.82,14200.0,14200.0,0,1.5830000000000002
134,206.87,9747.0,9746.0,0,1.051
135,206.92,5983.0,5982.0,0,0.6351
136,206.97,3283.0,3283.0,0,0.3485
137,207.02,1610.0,1610.0,0,0.173
138,207.07,706.2,706.2,0,0.07749
139,207.12,276.8,276.8,0,0.03121
140,207.17,96.96,96.95,0,0.01127
141,207.22,30.35,30.34,0,0.003646
142,207.27,8.484,8.482999999999999,0,0.0010539999999999998
143,207.32,2.119,2.1180000000000003,0,0.0002719
144,207.37,0.4724,0.4723,0,6.256e-05
145,207.42,0.09401,0.094,0,1.283e-05
146,207.47,0.0167,0.0167,0,2.344e-06
147,207.52,0.002647,0.002646,0,3.819e-07
148,207.57,0.0003742,0.0003741,0,5.614e-08
149,207.62,4.718e-05,4.717e-05,0,8.314000000000001e-09
150,207.67,5.305e-06,5.303e-06,0,2.197e-09
151,207.72,5.34e-07,5.325e-07,0,1.501e-09
152,207.77,6.424e-08,6.293999999999999e-08,0,1.303e-09
153,207.82,1.968e-07,1.957e-07,0,1.056e-09
154,207.87,2.126e-06,2.125e-06,0,7.655000000000001e-10
155,207.92,2.101e-05,2.101e-05,0,4.945e-10
156,207.97,0.00018559999999999998,0.00018559999999999998,0,2.8460000000000003e-10
157,208.02,0.001465,0.001465,0,1.459e-10
158,208.07,0.010329999999999999,0.010329999999999999,0,6.66e-11
159,208.12,0.06517,0.06517,0,2.708e-11
160,208.17,0.3676,0.3676,0,9.810000000000001e-12
161,208.22,1.855,1.855,0,3.165e-12
162,208.27,8.377,8.377,0,9.096e-13
163,208.32,33.87,33.87,0,2.328e-13
164,208.37,122.7,122.7,0,5.3079999999999993e-14
165,208.42,398.2,398.2,0,1.078e-14
166,208.47,1158.0,1158.0,0,1.95e-15
167,208.52,3021.0,3021.0,0,3.141e-16
168,208.57,7069.0,7069.0,0,4.508e-17
169,208.62,14840.0,14840.0,0,5.762000000000001e-18
170,208.67,27960.0,27960.0,0,6.56e-19
171,208.72,47260.0,47260.0,0,6.652e-20
172,208.77,71710.0,71710.0,0,6.008e-21
173,208.82,97650.0,97650.0,0,4.833999999999999e-22
174,208.87,119300.0,119300.0,0,3.4640000000000005e-23
175,208.92,130800.0,130800.0,0,2.2109999999999998e-24
176,208.97,128600.0,128600.0,0,1.257e-25
177,209.02,113400.0,113400.0,0,0
178,209.07,89590.0,89590.0,0,0
179,209.12,63430.0,63430.0,0,0
180,209.17,40220.0,40220.0,0,0
181,209.22,22830.0,22830.0,0,0
182,209.27,11600.0,11600.0,0,0
183,209.32,5272.0,5272.0,0,0
184,209.37,2143.0,2143.0,0,0
185,209.42,778.7,778.7,0,0
186,209.47,252.9,252.9,0,0
187,209.52,73.39,73.39,0,0
188,209.57,19.02,19.02,0,0
189,209.62,4.404,4.404,0,0
190,209.67,0.9103,0.9103,0,0
191,209.72,0.168,0.168,0,0
192,209.77,0.02767,0.02767,0,0
193,209.82,0.004069,0.004069,0,0
194,209.87,0.0005338,0.0005338,0,0
195,209.92,6.25e-05,6.25e-05,0,0
196,209.97,6.529e-06,6.529e-06,0,0
197,210.02,6.086e-07,6.086e-07,0,0
198,210.07,5.0599999999999996e-08,5.0599999999999996e-08,0,0
199,210.12,3.754e-09,3.754e-09,0,0
200,210.17,2.484e-10,2.484e-10,0,0
201,210.22,1.4550000000000001e-11,1.4550000000000001e-11,0,0
202,211.12,2.938e-17,0,2.938e-17,0
203,211.17,4.744e-16,0,4.744e-16,0
204,211.22,6.7379999999999994e-15,0,6.7379999999999994e-15,0
205,211.27,8.562e-14,0,8.562e-14,0
206,211.32,9.745e-13,0,9.745e-13,0
207,211.37,9.934e-12,0,9.934e-12,0
208,211.42,9.070999999999999e-11,0,9.070999999999999e-11,0
209,211.47,7.421e-10,0,7.421e-10,0
210,211.52,5.44e-09,0,5.44e-09,0
211,211.57,3.574e-08,0,3.574e-08,0
212,211.62,2.104e-07,0,2.104e-07,0
213,211.67,1.111e-06,0,1.111e-06,0
214,211.72,5.26e-06,0,5.26e-06,0
215,211.77,2.234e-05,0,2.234e-05,0
216,211.82,8.512e-05,0,8.512e-05,0
217,211.87,0.0002912,0,0.0002912,0
218,211.92,0.0008945,0,0.0008945,0
219,211.97,0.0024690000000000003,0,0.0024690000000000003,0
220,212.02,0.006125,0,0.006125,0
221,212.07,0.013669999999999998,0,0.013669999999999998,0
222,212.12,0.02745,6.102999999999999e-17,0.02745,0
223,212.17,0.04965,4.993e-15,0.04965,0
224,212.22,0.08091,7.679e-14,0.08091,0
225,212.27,0.1189,1.0580000000000001e-12,0.1189,0
226,212.32,0.1576,1.307e-11,0.1576,0
227,212.37,0.1886,1.4469999999999998e-10,0.1886,0
228,212.42,0.2039,1.436e-09,0.2039,0
229,212.47,0.1991,1.2770000000000001e-08,0.1991,9.434999999999999e-28
230,212.52,0.1757,1.018e-07,0.1757,1.984e-26
231,212.57,0.1401,7.27e-07,0.1401,2.9640000000000003e-25
232,212.62,0.101,4.654e-06,0.101,3.971e-24
233,212.67,0.06581000000000001,2.67e-05,0.06577999999999999,4.7689999999999996e-23
234,212.72,0.03884,0.00013730000000000003,0.03871,5.135e-22
235,212.77,0.0212,0.0006326000000000001,0.020569999999999998,4.957e-21
236,212.82,0.01248,0.002613,0.009862000000000001,4.289e-20
237,212.87,0.013940000000000001,0.00967,0.004267,3.328e-19
238,212.92,0.03374,0.032080000000000004,0.0016640000000000001,2.314e-18
239,212.97,0.09596,0.09537000000000001,0.0005849000000000001,1.443e-17
240,213.02,0.2543,0.2541,0.0001851,8.067e-17
241,213.07,0.6069,0.6068,5.273e-05,4.0430000000000003e-16
242,213.12,1.2990000000000002,1.2990000000000002,1.351e-05,1.816e-15
243,213.17,2.491,2.491,3.113e-06,7.316e-15
244,213.22,4.282,4.282,6.446999999999999e-07,2.642e-14
245,213.27,6.597,6.597,1.199e-07,8.552000000000001e-14
246,213.32,9.109,9.109,2.003e-08,2.482e-13
247,213.37,11.27,11.27,3.004e-09,6.458e-13
248,213.42,12.5,12.5,4.0439999999999997e-10,1.5069999999999997e-12
249,213.47,12.43,12.43,4.884e-11,3.1510000000000002e-12
250,213.52,11.07,11.07,5.2899999999999995e-12,5.907e-12
251,213.57,8.837,8.837,5.14e-13,9.927999999999999e-12
252,213.62,6.3229999999999995,6.3229999999999995,4.478e-14,1.4960000000000002e-11
253,213.67,4.055,4.055,3.497e-15,2.0210000000000004e-11
254,213.72,2.33,2.33,2.4390000000000003e-16,2.4480000000000002e-11
255,213.77,1.2,1.2,1.44e-17,2.6579999999999997e-11
256,213.82,0.5541,0.5541,0,2.587e-11
257,213.87,0.2292,0.2292,0,2.258e-11
258,213.92,0.08499,0.08499,0,1.766e-11
259,213.97,0.028239999999999998,0.028239999999999998,0,1.239e-11
260,214.02,0.008411,0.008411,0,7.79e-12
261,214.07,0.002245,0.002245,0,4.391e-12
262,214.12,0.000537,0.000537,0,2.2189999999999997e-12
263,214.17,0.0001151,0.0001151,0,1.0060000000000002e-12
264,214.22,2.212e-05,2.212e-05,0,4.085e-13
265,214.27,3.809e-06,3.809e-06,0,1.487e-13
266,214.32,5.878e-07,5.878e-07,0,4.8560000000000003e-14
267,214.37,8.129e-08,8.129e-08,0,1.421e-14
268,214.42,1.008e-08,1.008e-08,0,3.7299999999999995e-15
269,214.47,1.119e-09,1.119e-09,0,8.773999999999999e-16
270,214.52,1.1140000000000001e-10,1.1140000000000001e-10,0,1.85e-16
271,214.57,9.943999999999999e-12,9.943999999999999e-12,0,3.498e-17
272,214.62,7.952e-13,7.952e-13,0,5.93e-18
273,214.67,5.698999999999999e-14,5.698999999999999e-14,0,9.011e-19
274,214.72,3.66e-15,3.66e-15,0,1.2279999999999998e-19
275,214.77,1.4990000000000002e-20,0,0,1.4990000000000002e-20
276,214.82,1.642e-21,0,0,1.642e-21
277,214.87,1.612e-22,0,0,1.612e-22
278,214.92,1.418e-23,0,0,1.418e-23
279,214.97,1.119e-24,0,0,1.119e-24
280,215.02,7.914e-26,0,0,7.914e-26
281,215.07,5.018e-27,0,0,5.018e-27
282,219.87,3.239e-22,0,3.239e-22,0
283,219.92,4.861e-21,0,4.861e-21,0
284,219.97,6.979e-20,0,6.979e-20,0
285,220.02,8.528000000000001e-19,0,8.528000000000001e-19,0
286,220.07,9.448e-18,0,9.448e-18,0
287,220.12,9.496999999999999e-17,0,9.496999999999999e-17,0
288,220.17,8.67e-16,0,8.67e-16,0
289,220.22,7.195e-15,0,7.195e-15,0
290,220.27,5.4329999999999994e-14,0,5.4329999999999994e-14,0
291,220.32,3.736e-13,0,3.736e-13,0
292,220.37,2.343e-12,0,2.343e-12,0
293,220.42,1.341e-11,0,1.341e-11,0
294,220.47,7.006e-11,0,7.006e-11,0
295,220.52,3.345e-10,0,3.345e-10,0
296,220.57,1.459e-09,0,1.459e-09,0
297,220.62,5.819999999999999e-09,0,5.819999999999999e-09,0
298,220.67,2.12e-08,0,2.12e-08,0
299,220.72,7.051e-08,0,7.051e-08,0
300,220.77,2.1399999999999998e-07,0,2.1399999999999998e-07,0
301,220.82,5.919e-07,0,5.919e-07,0
302,220.87,1.491e-06,0,1.491e-06,0
303,220.92,3.418e-06,0,3.418e-06,0
304,220.97,7.124e-06,0,7.124e-06,0
305,221.02,1.35e-05,0,1.35e-05,0
306,221.07,2.33e-05,0,2.33e-05,0
307,221.12,3.682e-05,0,3.682e-05,0
308,221.17,5.408e-05,0,5.408e-05,0
309,221.22,7.651e-05,0,7.651e-05,0
310,221.27,0.0001117,0,0.0001117,0
311,221.32,0.0001831,0,0.0001831,0
312,221.37,0.00034589999999999995,0,0.00034589999999999995,0
313,221.42,0.0007099000000000001,0,0.0007099000000000001,0
314,221.47,0.001469,0,0.001469,0
315,221.52,0.002932,0,0.002932,0
316,221.57,0.00556,0,0.00556,0
317,221.62,0.009996,0,0.009996,0
318,221.67,0.01706,0,0.01706,0
319,221.72,0.027610000000000003,0,0.027610000000000003,0
320,221.77,0.04227,0,0.04227,0
321,221.82,0.060820000000000006,0,0.060820000000000006,0
322,221.87,0.0816,0,0.0816,0
323,221.92,0.1013,0,0.1013,0
324,221.97,0.1157,0,0.1157,0
325,222.02,0.1209,0,0.1209,0
326,222.07,0.1151,0,0.1151,1.1890000000000002e-26
327,222.12,0.09963999999999999,0,0.09963999999999999,1.898e-25
328,222.17,0.07823,0,0.07823,2.425e-24
329,222.22,0.05565,0,0.05565,2.806e-23
330,222.27,0.03584,0,0.03584,2.942e-22
331,222.32,0.020880000000000003,0,0.020880000000000003,2.794e-21
332,222.37,0.011,0,0.011,2.4030000000000003e-20
333,222.42,0.00524,0,0.00524,1.8739999999999999e-19
334,222.47,0.0022559999999999998,0,0.0022559999999999998,1.323e-18
335,222.52,0.0008779,0,0.0008779,8.472000000000001e-18
336,222.57,0.00030869999999999997,0,0.00030869999999999997,4.916e-17
337,222.62,9.81e-05,0,9.81e-05,2.585e-16
338,222.67,2.817e-05,0,2.817e-05,1.2320000000000001e-15
339,222.72,7.309e-06,0,7.309e-06,5.326e-15
340,222.77,1.714e-06,0,1.714e-06,2.087e-14
341,222.82,3.631e-07,0,3.631e-07,7.415e-14
342,222.87,6.950000000000001e-08,0,6.950000000000001e-08,2.389e-13
343,222.92,1.202e-08,0,1.202e-08,6.98e-13
344,222.97,1.88e-09,0,1.878e-09,1.849e-12
345,223.02,2.6969999999999996e-10,0,2.6519999999999997e-10,4.444e-12
346,223.07,4.3530000000000004e-11,0,3.384e-11,9.684e-12
347,223.12,2.3040000000000002e-11,0,3.9010000000000004e-12,1.914e-11
348,223.17,3.472e-11,0,4.064e-13,3.431e-11
349,223.22,5.5829999999999996e-11,0,3.825e-14,5.5789999999999996e-11
350,223.27,8.226000000000001e-11,0,3.2520000000000004e-15,8.226000000000001e-11
351,223.32,1.1e-10,0,2.4990000000000003e-16,1.1e-10
352,223.37,1.334e-10,0,1.7349999999999998e-17,1.334e-10
353,223.42,1.467e-10,0,0,1.467e-10
354,223.47,1.462e-10,0,0,1.462e-10
355,223.52,1.322e-10,0,0,1.322e-10
356,223.57,1.0840000000000001e-10,0,0,1.0840000000000001e-10
357,223.62,8.051000000000001e-11,0,0,8.051000000000001e-11
358,223.67,5.4219999999999995e-11,0,0,5.4219999999999995e-11
359,223.72,3.31e-11,0,0,3.31e-11
360,223.77,1.831e-11,0,0,1.831e-11
361,223.82,9.177999999999998e-12,0,0,9.177999999999998e-12
362,223.87,4.169e-12,0,0,4.169e-12
363,223.92,1.716e-12,0,0,1.716e-12
364,223.97,6.397e-13,0,0,6.397e-13
365,224.02,2.161e-13,0,0,2.161e-13
366,224.07,6.609e-14,0,0,6.609e-14
367,224.12,1.831e-14,0,0,1.831e-14
368,224.17,4.595e-15,0,0,4.595e-15
369,224.22,1.044e-15,0,0,1.044e-15
370,224.27,2.148e-16,0,0,2.148e-16
371,224.32,4.002e-17,0,0,4.002e-17
372,224.37,6.75e-18,0,0,6.75e-18
373,224.42,1.031e-18,0,0,1.031e-18
374,224.47,1.4250000000000001e-19,0,0,1.4250000000000001e-19
375,224.52,1.783e-20,0,0,1.783e-20
376,224.57,2.0190000000000003e-21,0,0,2.0190000000000003e-21
377,224.62,2.07e-22,0,0,2.07e-22
378,224.67,1.921e-23,0,0,1.921e-23
379,224.72,1.6130000000000002e-24,0,0,1.6130000000000002e-24
380,224.77,1.2260000000000002e-25,0,0,1.2260000000000002e-25
381,224.82,8.184e-27,0,0,8.184e-27
382,225.12,1.695e-17,0,1.695e-17,0
383,225.17,2.2019999999999998e-16,0,2.2019999999999998e-16,0
384,225.22,2.594e-15,0,2.594e-15,0
385,225.27,2.7730000000000002e-14,0,2.7730000000000002e-14,0
386,225.32,2.688e-13,0,2.688e-13,0
387,225.37,2.364e-12,0,2.364e-12,0
388,225.42,1.886e-11,0,1.886e-11,0
389,225.47,1.3640000000000001e-10,0,1.3640000000000001e-10,0
390,225.52,8.957000000000001e-10,0,8.957000000000001e-10,0
391,225.57,5.333e-09,0,5.333e-09,0
392,225.62,2.88e-08,0,2.88e-08,0
393,225.67,1.4109999999999999e-07,0,1.4109999999999999e-07,0
394,225.72,6.272e-07,0,6.272e-07,0
395,225.77,2.5290000000000003e-06,0,2.5290000000000003e-06,0
396,225.82,9.247e-06,0,9.247e-06,0
397,225.87,3.068e-05,0,3.068e-05,0
398,225.92,9.231e-05,0,9.231e-05,0
399,225.97,0.000252,0,0.000252,0
400,226.02,0.0006239,0,0.0006239,0
401,226.07,0.001401,0,0.001401,0
402,226.12,0.002855,0,0.002855,0
403,226.17,0.0052770000000000004,0,0.0052770000000000004,0
404,226.22,0.008847,0,0.008847,0
405,226.27,0.01345,0,0.01345,0
406,226.32,0.01856,0,0.01856,0
407,226.37,0.02323,0,0.02323,0
408,226.42,0.02636,0,0.02636,0
409,226.47,0.02715,0,0.02715,0
410,226.52,0.02536,0,0.02536,0
411,226.57,0.021480000000000003,0,0.021480000000000003,0
412,226.62,0.01651,0,0.01651,0
413,226.67,0.01151,0,0.01151,0
414,226.72,0.00728,0,0.00728,0
415,226.77,0.004176,0,0.004176,0
416,226.82,0.002173,0,0.002173,0
417,226.87,0.001026,0,0.001026,0
418,226.92,0.00043919999999999994,0,0.00043919999999999994,0
419,226.97,0.0001706,0,0.0001706,0
420,227.02,6.011e-05,0,6.011e-05,0
421,227.07,1.921e-05,0,1.921e-05,0
422,227.12,5.57e-06,0,5.57e-06,0
423,227.17,1.465e-06,0,1.465e-06,0
424,227.22,3.494e-07,0,3.494e-07,0
425,227.27,7.562e-08,0,7.562e-08,0
426,227.32,1.484e-08,0,1.484e-08,0
427,227.37,2.6429999999999997e-09,0,2.6429999999999997e-09,0
428,227.42,4.269e-10,0,4.269e-10,0
429,227.47,6.255e-11,0,6.255e-11,0
430,227.52,8.314e-12,0,8.314e-12,0
431,227.57,1.002e-12,0,1.002e-12,0
432,227.62,1.096e-13,0,1.096e-13,0
433,227.67,1.087e-14,0,1.087e-14,0
434,227.72,9.786e-16,0,9.786e-16,0
435,227.77,7.987999999999999e-17,0,7.987999999999999e-17,0
436,227.82,5.9150000000000005e-18,0,5.9150000000000005e-18,0
437,230.92,7.73e-18,0,7.73e-18,0
438,230.97,9.52e-17,0,9.52e-17,0
439,231.02,1.069e-15,0,1.069e-15,0
440,231.07,1.094e-14,0,1.094e-14,0
441,231.12,1.02e-13,0,1.02e-13,0
442,231.17,8.672e-13,0,8.672e-13,0
443,231.22,6.721e-12,0,6.721e-12,0
444,231.27,4.746999999999999e-11,0,4.746999999999999e-11,0
445,231.32,3.057e-10,0,3.057e-10,0
446,231.37,1.794e-09,0,1.794e-09,0
447,231.42,9.597e-09,0,9.597e-09,0
448,231.47,4.6799999999999996e-08,0,4.6799999999999996e-08,0
449,231.52,2.08e-07,0,2.08e-07,0
450,231.58,1.102e-06,0,1.102e-06,0
451,231.63,3.996e-06,0,3.996e-06,0
452,231.68,1.321e-05,0,1.321e-05,0
453,231.73,3.977e-05,0,3.977e-05,0
454,231.78,0.00010920000000000001,0,0.00010920000000000001,0
455,231.83,0.00027319999999999997,0,0.00027319999999999997,0
456,231.88,0.0006232999999999999,0,0.0006232999999999999,0
457,231.93,0.001296,0,0.001296,0
458,231.98,0.002456,0,0.002456,0
459,232.03,0.004243,0,0.004243,0
460,232.08,0.006682,0,0.006682,0
461,232.13,0.009595000000000001,0,0.009595000000000001,0
